,experiment_id,num_time_steps_in_coordination_scale,fnirs_time_steps_in_coordination_scale,time_step_size,final_sync_proportion,sync_per_time_step,sync_proportion_per_time_step,s1_d1,s1_d2,s2_d1,s2_d3,s3_d1,s3_d3,s3_d4,s4_d2,s4_d4,s4_d5,s5_d3,s5_d4,s5_d6,s6_d4,s6_d6,s6_d7,s7_d5,s7_d7,s8_d6,s8_d7,left_hemisphere,right_hemisphere,medial,average
0,exp_2022_09_30_10,40,"[0, 1, 2, 3, 4, 5, 6, 7, 8, 9, 10, 11, 12, 13, 14, 15, 16, 17, 18, 19, 20, 21, 22, 23, 24, 25, 26, 27, 28, 29, 30, 31, 32, 33, 34, 35, 36, 37, 38, 39]",1.0,0.7727272727272727,"[True, False, True, True, True, True, True, True, True, True, False, False, False, True, True, True, True, True, True, True, True, False]","[0.045454545454545456, 0.045454545454545456, 0.09090909090909091, 0.13636363636363635, 0.18181818181818182, 0.22727272727272727, 0.2727272727272727, 0.3181818181818182, 0.36363636363636365, 0.4090909090909091, 0.4090909090909091, 0.4090909090909091, 0.4090909090909091, 0.45454545454545453, 0.5, 0.5454545454545454, 0.5909090909090909, 0.6363636363636364, 0.6818181818181818, 0.7272727272727273, 0.7727272727272727, 0.7727272727272727]","[[-0.466709295, -0.319655885, -0.09879384498, 0.06505932610000001, 0.08740997249999999, 0.013731382855, -0.044331272000000005, -0.0648997065, -0.16359388849999998, -0.424983085, -0.7155926049999999, -0.790486155, -0.59813533, -0.33648586, -0.19659589, -0.179326565, -0.178118515, -0.14847063500000002, -0.14811041, -0.23701964, -0.37583667499999995, -0.435548145, -0.316371065, -0.080261345645, 0.037673787485, -0.1777509522, -0.64772512, -0.996459045, -0.949870445, -0.60728965, -0.19363011412999998, 0.24550102299999998, 0.732097375, 1.136410525, 1.27609835, 1.1334067, 0.890968185, 0.76312196, 0.796060745, 0.83915562], [-0.0633667975, -0.019621704171500002, 0.0509149155, 0.053027878, -0.01850390586, -0.08841481899999999, -0.076253955, 0.017563741690000002, 0.092770836, 0.03371274321, -0.18288131400000002, -0.46700425500000003, -0.681637805, -0.73012621, -0.61122535, -0.408760215, -0.22553184999999998, -0.11979121599999999, -0.0942604665, -0.122613255, -0.17437304999999997, -0.229422655, -0.278400835, -0.31281669, -0.32797217500000003, -0.33211222999999995, -0.33105070499999995, -0.314154015, -0.276021165, -0.23918863999999998, -0.23774209, -0.28860159, -0.37948673, -0.464700025, -0.48597371500000003, -0.42032941, -0.296608575, -0.1616493, -0.050512980699999994, 0.01586364828], [-0.44039161, -0.412906255, -0.304678415, -0.1545461675, 0.008100485425, 0.163884881, 0.288031755, 0.338046905, 0.27107237, 0.09264974026999999, -0.114609489, -0.23218893000000002, -0.19469244, -0.04599609536, 0.103177404, 0.177763925, 0.18918689, 0.189731215, 0.2030755, 0.20933957500000003, 0.1769796, 0.0951091125, -0.01536530476, -0.115560683, -0.17610873999999999, -0.18966135, -0.16395721500000002, -0.113771034, -0.055961812, -0.0032034022595, 0.037522683, 0.05970198350000001, 0.056090815999999995, 0.02489791045, -0.02446345288, -0.07014899449999999, -0.089537151, -0.082027256, -0.07109556, -0.0724653875]]","[[1.4471176, 1.4926943499999998, 1.2924309, 0.86144752, 0.39048750499999996, 0.033614396695, -0.17109054499999998, -0.21412851, -0.051591237345, 0.29465854, 0.62097419, 0.654208085, 0.2580262795, -0.43380262799999997, -1.058423215, -1.3425880000000001, -1.29233375, -1.093532385, -0.945766735, -0.975701825, -1.19027075, -1.44926625, -1.55903085, -1.4586703, -1.2809290500000001, -1.20353665, -1.2116056, -1.028723385, -0.44812994600000006, 0.28356608495, 0.61513108, 0.22177302480000002, -0.618379335, -1.23463435, -1.2318933, -0.7545634250000001, -0.110406129985, 0.56917164, 1.217414905, 1.7056947], [-0.112913305, -0.0666630545, 0.016562532155, 0.033450805, -0.029868485004, -0.09510229649999999, -0.07744451599999999, 0.0236369327835, 0.1133549615, 0.08049146800000001, -0.09640015638499999, -0.31836036, -0.453763765, -0.44046236, -0.306046255, -0.1406923865, -0.03191859615, 2.01854325e-05, -0.0146497541, -0.047123429999999994, -0.0756394345, -0.0846402345, -0.074645084, -0.058105726, -0.045362558000000004, -0.0404160655, -0.03796023, -0.02249841865, 0.009516809925000001, 0.0333938825, 0.0179975280885, -0.03531663685, -0.0932319485, -0.129382345, -0.134780215, -0.10054592, -0.0252740324125, 0.0584274815, 0.096930496, 0.074841463], [-0.31465609499999997, -0.28583131, -0.24449979, -0.184518215, -0.10522725, -0.0246112015395, 0.029848072349999998, 0.0441274215, 0.021900742549999998, -0.02029527763, -0.0557620885, -0.0610183065, -0.0306102274, 0.022073581395500003, 0.069753337, 0.0871803225, 0.080089703, 0.0831792795, 0.1098652495, 0.130390295, 0.1114414755, 0.051917872999999996, -0.019467689025, -0.065948277, -0.0711186655, -0.050587682, -0.0248760935, 0.0051417854995, 0.043528815500000005, 0.083466218, 0.11202911500000001, 0.109333078, 0.05476777245, -0.04603347012, -0.155413605, -0.22978331999999999, -0.24192688, -0.195549185, -0.13068681, -0.0865580035]]","[[-0.593052275, -0.498661625, -0.227013241, 0.10862253415499999, 0.34070231999999995, 0.420884075, 0.42723058, 0.37955296, 0.14515591745, -0.3505383815, -0.8584684149999999, -0.9680943499999999, -0.5869995, -0.051761555455000004, 0.274736495, 0.33952023, 0.31476645000000003, 0.33048321, 0.3636534, 0.340459345, 0.27341069, 0.26866328500000003, 0.40515816, 0.6035888150000001, 0.61489165, 0.22330362772499998, -0.44720905, -0.943464105, -0.98254195, -0.755287465, -0.52351518, -0.18403111495000002, 0.4447797235, 1.1055438, 1.31295475, 0.965688325, 0.45014730999999997, 0.184036155, 0.24687598000000002, 0.39768573], [0.136752115, 0.1006346155, 0.0314660726555, -0.098055379, -0.241611785, -0.30757943, -0.24157272500000002, -0.093909588, -0.004887243084, -0.0969768185, -0.363046875, -0.668860695, -0.859782125, -0.858698295, -0.69268, -0.45947721999999996, -0.25970833, -0.136838643, -0.076371325, -0.0553826385, -0.0729603615, -0.1348450395, -0.231883285, -0.33749097, -0.42006494000000005, -0.46122008999999997, -0.45860766, -0.41460218499999996, -0.34458421, -0.29663526, -0.327937875, -0.4454976, -0.5876054949999999, -0.66861231, -0.6366959649999999, -0.501478045, -0.32076488, -0.1580275845, -0.0484668765, 5.1876000499999994e-05], [-0.44981504, -0.4729073, -0.402711015, -0.255733135, -0.06926767398, 0.11242326, 0.24622308, 0.29168, 0.22500376500000002, 0.06924489565, -0.09794654850000001, -0.186229735, -0.15498415, -0.044770090194999994, 0.05806696149999999, 0.0959588995, 0.0766755475, 0.040499514, 0.011181114408499998, -0.01189138829, -0.033021125000000005, -0.0517008015, -0.07073439200000001, -0.10256003200000001, -0.160812715, -0.24001187000000002, -0.309131385, -0.33162931, -0.290766235, -0.19828453499999998, -0.08644024, 0.008522171571, 0.0652920715, 0.0852620685, 0.083057438, 0.0734371255, 0.061908330500000004, 0.039625828, -0.005647928686, -0.063808503]]","[[0.012946145630000001, -0.077736438, -0.13031395, -0.12130464, -0.081686513, -0.0642499965, -0.08618991599999999, -0.12964532, -0.182740095, -0.24285209, -0.27628837, -0.22033415, -0.0714065891304, 0.08035350100000001, 0.14910256, 0.13069117, 0.0739176755, 0.015815110295, -0.0364773345, -0.0790202025, -0.090700377, -0.048834042999999994, 0.03627656612, 0.11893960399999999, 0.165209065, 0.18672887500000002, 0.20694325500000002, 0.21941894, 0.20998814500000001, 0.18333426, 0.150923895, 0.131588875, 0.16236509500000001, 0.262837095, 0.38276902999999995, 0.43129822500000004, 0.36762332999999997, 0.242630515, 0.14359918, 0.099237471], [-0.434023185, -0.39907735, -0.37994432000000006, -0.476368325, -0.649414855, -0.7574596, -0.6949439049999999, -0.5038451899999999, -0.34137476, -0.32658049, -0.428109135, -0.512207735, -0.479334765, -0.33725519499999995, -0.1648111355, -0.042776601000000004, -0.008317384249999999, -0.0351766705, -0.0585872555, -0.045631445, -0.029213983, -0.054129958, -0.117191438, -0.17753408499999998, -0.199540985, -0.17757673499999999, -0.133026555, -0.084108894, -0.0263800400505, 0.04038544135, 0.08716496550000001, 0.0891372275, 0.0650736745, 0.056951906000000004, 0.09371541150000001, 0.1849392, 0.32201276, 0.47706676000000003, 0.60118683, 0.620676295], [-0.640627945, -0.624377065, -0.461387975, -0.213052094, 0.04166130144, 0.23459888499999998, 0.32995981999999996, 0.32856403, 0.25754853, 0.156223355, 0.0581755555, -0.022147316033000002, -0.084424853, -0.13331073999999998, -0.17369651, -0.19928593500000003, -0.18968949, -0.134398495, -0.05476472, 0.0075286391785, 0.0180463173, -0.031199225514000003, -0.1187282865, -0.21348921499999998, -0.298685835, -0.36573948, -0.395078775, -0.36444519, -0.275790465, -0.16328168, -0.074156591, -0.037429792499999996, -0.042882831499999996, -0.0515392535, -0.02912734905, 0.031055025908, 0.104690812, 0.14237243, 0.0989422435, -0.014640701705000002]]","[[-0.5069130049999999, -0.48265935499999996, -0.2446479665, 0.092067947515, 0.34691974999999997, 0.459167095, 0.48820898, 0.431674875, 0.15370393565, -0.38706980350000003, -0.895296445, -0.9464702300000001, -0.4744145, 0.1466601041, 0.5213905400000001, 0.576912725, 0.49007409, 0.419579465, 0.37477649999999996, 0.29899407499999997, 0.20884172499999998, 0.213419495, 0.38834276, 0.62220676, 0.6082698950000001, 0.09949410815, -0.729364985, -1.3105783500000001, -1.2884509499999999, -0.89242113, -0.485693905, -0.04786539537, 0.57509577, 1.161219005, 1.28799645, 0.88692605, 0.349124445, 0.1036283465, 0.22577915, 0.42127785], [0.184167615, 0.1152275985, 0.0902632375, 0.07813288, 0.0575966505, 0.0361329575, 0.034962123, 0.057970483, 0.05468088, -0.052948357432, -0.28153022499999997, -0.55769261, -0.77759665, -0.85763466, -0.756006825, -0.514583045, -0.258463435, -0.10174372699999999, -0.065034939, -0.097062197, -0.149412845, -0.20947748, -0.28130661, -0.36556107, -0.44447684000000004, -0.487620765, -0.48661092000000006, -0.464712975, -0.448084765, -0.454255655, -0.498266595, -0.577613815, -0.6654423250000001, -0.72818271, -0.73228581, -0.642368625, -0.46178576, -0.25824073, -0.10793224800000001, -0.037385945999999996], [-0.7259146900000001, -0.7293150799999999, -0.5748338350000001, -0.32359302, -0.031139896955, 0.26566761, 0.529331405, 0.691352135, 0.6662176949999999, 0.426339955, 0.062432528875, -0.25148373500000004, -0.37347909, -0.294117995, -0.1253087845, 0.01373098745, 0.0922475155, 0.14952432999999998, 0.20836209, 0.23588357999999998, 0.183225295, 0.042566321360000006, -0.139013774, -0.29334982, -0.37514496, -0.376431295, -0.31452509, -0.217079405, -0.10772123049999999, 0.00735282464, 0.129877063, 0.247003695, 0.33094931000000005, 0.35389806, 0.30173328, 0.189538805, 0.05840466637, -0.056752767950000005, -0.140915615, -0.175807835]]","[[-0.323666545, -0.405035225, -0.341301725, -0.127104098175, 0.13439803095, 0.338367025, 0.44421753, 0.42409352, 0.21861156650000002, -0.16853088954499998, -0.5515576999999999, -0.660773305, -0.40520443, 0.026634874865, 0.348543025, 0.42151300999999997, 0.30224066, 0.1175870525, -0.044950038455, -0.146418615, -0.15714276, -0.04353803782, 0.1911281935, 0.43705320000000003, 0.477445625, 0.15931710578, -0.37331227499999997, -0.72527146, -0.666414385, -0.36933636999999997, -0.11072088349999999, 0.08073128823999999, 0.324451045, 0.578112195, 0.6447408450000001, 0.44549825, 0.13628816840000002, -0.0600321387725, -0.0604362165, 0.028609874155], [-0.14329530099999999, -0.18567371000000002, -0.136976545, -0.067977846, -0.0162166433445, 0.023253264449999998, 0.058575471500000004, 0.0645948765, -0.0054152311814999994, -0.16182388849999998, -0.34940013999999997, -0.48800751, -0.5249798450000001, -0.45157299, -0.30294578, -0.1471218835, -0.045908028999999996, -0.0159062435, -0.0331050275, -0.06697605649999999, -0.09987899049999999, -0.12492539000000001, -0.14067351, -0.14911317999999998, -0.15814693999999999, -0.178598205, -0.20548425, -0.213834305, -0.19084974500000002, -0.158634705, -0.151488835, -0.18409731000000001, -0.24641317999999998, -0.30915551, -0.33418261, -0.29928876, -0.20865364, -0.0766941959, 0.069788885445, 0.17430786999999998], [-0.9498238050000001, -0.85902636, -0.63441109, -0.34786019500000004, -0.05466562301, 0.21035863549999997, 0.425512595, 0.564059505, 0.586652715, 0.46763672, 0.23455510000000002, -0.023529617359000003, -0.20127600999999998, -0.25168723, -0.21311452, -0.14912068, -0.078241558, 0.01682646675, 0.1293129315, 0.20476518, 0.179008495, 0.039530617095, -0.1503275545, -0.29881744, -0.358211905, -0.3416658, -0.28348647, -0.20457523, -0.111231692, -0.00960626721, 0.083441979, 0.14699406, 0.17354533, 0.16887927000000003, 0.13647831500000002, 0.076033711, -0.00759387099, -0.10582662100000001, -0.205170425, -0.273920745]]","[[-0.0010757832849999998, -0.1041432885, -0.09303175749999999, 0.042293409615, 0.22276291, 0.378026115, 0.47281909, 0.43636410500000006, 0.15010213149, -0.39352261050000004, -0.932984145, -1.0974798, -0.78964097, -0.289363765, 0.045692737670000004, 0.0849091505, -0.06670985843499999, -0.250740005, -0.38691205500000003, -0.45811022, -0.431011435, -0.23790244349999998, 0.13896289785000002, 0.54516575, 0.64923097, 0.20317507955, -0.5962068899999999, -1.178406715, -1.2197597, -0.94942137, -0.67243628, -0.323287805, 0.24076936715, 0.7710419749999999, 0.84343236, 0.42181546500000006, -0.064704666059, -0.198101185, 0.04365950307, 0.33748394], [-0.06291837602, -0.14599836, -0.15442705, -0.10964104799999999, -0.031524185619499996, 0.066896688, 0.16483404000000001, 0.22555365500000002, 0.206589825, 0.09257251350000001, -0.07920943732499999, -0.23691285, -0.31743477, -0.30260123, -0.225050205, -0.13730963499999999, -0.074254365, -0.042065837, -0.029329295499999998, -0.025041522, -0.0250814345, -0.0310341345, -0.0498310135, -0.081031041, -0.112388735, -0.13403845, -0.14312967000000001, -0.13596862999999998, -0.114126505, -0.0926890375, -0.08582300500000001, -0.1014601765, -0.15325653, -0.24797481999999998, -0.34594701499999997, -0.37775977, -0.316726775, -0.2026439, -0.0985809235, -0.043631195], [-0.982896095, -0.92929478, -0.757008215, -0.52131008, -0.25371599, 0.035430339709885, 0.33125905000000005, 0.5815255899999999, 0.6970797249999999, 0.609174275, 0.33821996, 0.00627835095, -0.23138324999999998, -0.29357443499999997, -0.22160989, -0.11533051, -0.03013683216, 0.05089452225, 0.1574760715, 0.26533614, 0.29214582, 0.16932266399999998, -0.07349558801799999, -0.311810425, -0.423414005, -0.37286537000000003, -0.214152165, -0.0364023093445, 0.09780473499999999, 0.181669345, 0.24100023, 0.291318305, 0.323388885, 0.31375381, 0.237025815, 0.08567576162, -0.10940918725, -0.286654465, -0.38526064, -0.37098158499999995]]","[[-0.68684473, -0.081643170636, 0.741253545, 1.3167399, 1.4903477, 1.5581832, 1.7460449, 1.7033205, 0.809913162, -0.80707290665, -1.9157812, -1.482314755, -0.010593970549999998, 1.15833444, 1.40930215, 1.132795275, 0.9235977400000001, 0.9727149350000001, 1.0912695, 1.038733745, 0.811963825, 0.722600705, 1.10449942, 1.7449146, 1.66549185, -0.04861329345, -2.8187000999999996, -4.5856644, -4.085673750000001, -2.2541626, -0.661585965, 0.32659662001999995, 1.15451858, 1.7844152500000001, 1.6250303, 0.44665648085, -0.97574419, -1.3571095, -0.28791802359999996, 1.13575638], [-0.101688633, -0.08816029800000001, -0.0481369145, -0.0177476025, -0.013806878, -0.023498342499999998, -0.023052749, -0.0016671979355950002, 0.021887525, 0.013891128723, -0.0376231701, -0.11293059700000001, -0.181386815, -0.214751245, -0.19480006, -0.1288843575, -0.048786562, 0.0159910952555, 0.054828479000000006, 0.0654315325, 0.0469788415, 0.00809549994, -0.033861824, -0.059719918, -0.0538587815, -0.017435529895999998, 0.02570863525, 0.049416235999999995, 0.0455496095, 0.0189005883, -0.023288907074999997, -0.07125401049999999, -0.11475730799999999, -0.144441555, -0.144971285, -0.10276998799999999, -0.027848548239, 0.0498473685, 0.1048202385, 0.12362299], [-0.20554823500000002, -0.21771585999999998, -0.220336295, -0.19618089000000002, -0.14257777000000002, -0.076441505, -0.02105741955, 0.0091231860935, 0.01137824075, -0.0047311306945, -0.0227991125, -0.031240754000000003, -0.023147343, 0.005010323399799999, 0.040449826499999994, 0.059124564, 0.061694366, 0.077601927, 0.11592582350000001, 0.1459089, 0.13528969, 0.08380531449999999, 0.020746829787499997, -0.020213796300000003, -0.029034629500000003, -0.020031895, -0.0044444801225, 0.019312737, 0.05005782649999999, 0.08282060749999999, 0.11634369700000001, 0.138965345, 0.1253198, 0.0646812395, -0.02604430329, -0.114642045, -0.166237995, -0.16398732, -0.12756098500000002, -0.088601817]]","[[-0.024386865786000002, -0.04298387049999999, 0.049065658065, 0.22809607499999998, 0.42045718, 0.5898518500000001, 0.72238498, 0.74155395, 0.509963645, -0.01206935522, -0.616633735, -0.95654354, -0.85473831, -0.470084385, -0.123412522, 0.004552654435, -0.047613147099999996, -0.16330564, -0.275021785, -0.365059825, -0.39866169, -0.29534794000000003, -0.00468481524, 0.35023947499999997, 0.43979714999999997, -0.00769984175, -0.80022787, -1.31982865, -1.195110045, -0.704417815, -0.29485378, -0.00857647649, 0.352870345, 0.7378137250000001, 0.8657014100000001, 0.6452204500000001, 0.31950469000000004, 0.176293735, 0.263752745, 0.40121851], [0.0068094235395000004, -0.026837914, -0.010507283479, 0.0159016207, 0.02793276, 0.031287367, 0.043239181999999994, 0.0611380885, 0.0610666755, 0.028148823, -0.02652956383, -0.0836539605, -0.13865165499999998, -0.19791551, -0.2531701, -0.27479764, -0.24223627, -0.17069198, -0.096647915, -0.0572249435, -0.0763564145, -0.14970295, -0.24342286999999999, -0.31364961999999996, -0.32901976, -0.28740666000000004, -0.227310755, -0.19631798499999997, -0.19831191, -0.20229722, -0.20092683, -0.225114405, -0.29755768499999996, -0.39199534999999996, -0.4438782, -0.413776095, -0.32379862000000004, -0.21929065, -0.126115651, -0.0639924795], [-0.56931058, -0.61433312, -0.58473471, -0.49070391999999996, -0.34707419, -0.165272374, 0.040514908615, 0.23695001999999998, 0.37072013, 0.39513799, 0.30064073, 0.12960621, -0.03655544287, -0.1281414385, -0.13542007, -0.0968298785, -0.0414443484, 0.03851959298, 0.1533303075, 0.27002469, 0.31722768, 0.245338815, 0.081950667255, -0.08618190399999999, -0.185243255, -0.19555986, -0.14048405, -0.0603212385, 0.013984397207000001, 0.076386358, 0.13372158, 0.18165918, 0.20081517000000002, 0.171429865, 0.0869250525, -0.032677929426, -0.142308135, -0.202875625, -0.206677695, -0.16742819]]","[[-1.1620354, -0.797036305, -0.09266232256000001, 0.631414315, 1.09728201, 1.2904871, 1.3095175499999998, 1.12929208, 0.6749840899999999, 0.13020550248999999, -0.084359068, 0.187716477425, 0.6528939699999999, 0.965838705, 1.0294479, 0.95145304, 0.87082416, 0.845129215, 0.8439523699999999, 0.797259705, 0.68411975, 0.62190424, 0.793229575, 1.160664715, 1.282104, 0.62210138435, -0.7545287752000001, -1.98874795, -2.3096395999999997, -1.8300073000000001, -1.16551598, -0.674092605, -0.2993298, 0.08799797678499999, 0.372673925, 0.24332976755000002, -0.35577933535, -0.9299808500000001, -0.930329855, -0.45584485], [-0.020989110000000002, -0.013428936899999999, 0.0005706256715, -0.0016913648275, -0.022823994500000003, -0.043211857, -0.040220190999999995, -0.010509902708, 0.0196288854, 0.012067507081, -0.049087227000000004, -0.145421566, -0.23931803, -0.29231581500000003, -0.28233107, -0.21786176000000002, -0.1307845755, -0.051904309499999995, 0.0009384827230000001, 0.019268606, 0.005779951243, -0.0239464688, -0.051508402, -0.0640021695, -0.0571675105, -0.040742881, -0.0336470685, -0.046374371, -0.0745457315, -0.11048518550000001, -0.15137707, -0.196394925, -0.243034405, -0.28100237499999997, -0.28896582, -0.250756075, -0.17483071, -0.08594931, -0.005445859983, 0.0487191185], [-0.22276632, -0.22848417000000001, -0.24811129, -0.25110277, -0.22635334499999998, -0.194576115, -0.17833371499999998, -0.16986451, -0.14710034500000002, -0.10184975550000001, -0.046018834, -0.004445395697000001, 0.010789056100000001, 0.0192267645, 0.0380865615, 0.0527531745, 0.0553257275, 0.07032283, 0.10753976, 0.13983359, 0.142627545, 0.11858642, 0.0869857635, 0.0660346585, 0.055438046500000004, 0.039707286, 0.0215778545, 0.025673569, 0.058032993, 0.09802729449999999, 0.126626665, 0.125392215, 0.077866904, -0.00331749321, -0.085196538, -0.142823045, -0.16398258, -0.15347118, -0.138348465, -0.13320984]]","[[-0.34813721000000003, -0.56140365, -0.767163785, -0.886220555, -0.912789995, -0.93546854, -1.034385895, -1.1783787, -1.2431903499999999, -1.1435505499999998, -0.942271485, -0.783074205, -0.7292639649999999, -0.74281937, -0.78658431, -0.862576905, -0.9708557550000001, -1.0789102, -1.1283368, -1.0708889499999998, -0.903591575, -0.666518915, -0.42065812999999996, -0.223706095, -0.07251674636, 0.1322058195, 0.490610725, 0.9578525050000001, 1.3633551499999998, 1.5676398, 1.5267709500000002, 1.25549895, 0.86906541, 0.62438706, 0.71999131, 1.058654, 1.3349837500000001, 1.34070895, 1.111145145, 0.84112087], [-0.24593071, -0.29680465500000003, -0.249358195, -0.18968022, -0.145113965, -0.09396526599999999, -0.023643298256, 0.0339802035, 0.01803855436, -0.09877811149999999, -0.265565255, -0.393364985, -0.428096185, -0.37516248500000005, -0.27809111999999997, -0.189325145, -0.140533125, -0.12147598, -0.0980118375, -0.057003105500000005, -0.021182704, -0.017865325, -0.046337325500000005, -0.0812021395, -0.100614671, -0.10364100000000001, -0.0983856675, -0.082576286, -0.0521190935, -0.0259230485, -0.0372096285, -0.0911727175, -0.146454785, -0.15092344000000002, -0.090069123, 0.00544691328, 0.09429018149999999, 0.164084895, 0.23305008000000002, 0.30542488500000003], [-0.580839735, -0.43054695000000004, -0.22607152500000002, -0.034992345615, 0.097999363, 0.155842095, 0.15269848, 0.121968365, 0.0929518365, 0.073599926, 0.044289221000000004, -0.02391938441281, -0.1269308075, -0.22015704500000002, -0.26082231, -0.23739298, -0.165456635, -0.078181789, -0.0140216974955, 0.00333330459902, -0.023681175699999998, -0.07195217549999999, -0.11538741849999999, -0.15046755, -0.201996775, -0.282111845, -0.350922815, -0.343710485, -0.239377705, -0.09110489449999999, 0.0129792766435, 0.020981953779999996, -0.0423818292, -0.098370287, -0.07781837900000001, 0.026993115914999997, 0.1544462015, 0.206486425, 0.11766158750000001, -0.06957790395]]","[[-0.167219905, -0.24500116, -0.246159935, -0.16241046, -0.062584895, -0.005679858633, 0.00282230003, -0.0537970595, -0.24612414999999999, -0.596156315, -0.950921035, -1.0721063499999999, -0.881906395, -0.547455055, -0.30010564500000003, -0.22415085999999998, -0.26072935999999997, -0.338002725, -0.42773368, -0.505789175, -0.515733055, -0.391268715, -0.122330318805, 0.1707298025, 0.248520835, -0.047001529065, -0.536180555, -0.7898950299999999, -0.61863872, -0.271858455, -0.02623211516, 0.175668435, 0.515160575, 0.91753546, 1.1150488, 1.00233493, 0.7558064849999999, 0.60259197, 0.59430148, 0.619833755], [-0.25937452, -0.402123185, -0.40690527000000004, -0.32735178, -0.19857671, -0.03203664087, 0.145872757, 0.268202435, 0.259150155, 0.10257208347, -0.1329372855, -0.34410333000000004, -0.45930080500000003, -0.460332365, -0.36989708, -0.240194915, -0.130674341, -0.07090999, -0.0528613455, -0.0642314935, -0.106575013, -0.17288315499999998, -0.23139914, -0.244286375, -0.19992348499999998, -0.1267578745, -0.0725079555, -0.0639710265, -0.0926147875, -0.14123322, -0.206067975, -0.28439317, -0.358558175, -0.398120535, -0.3729773, -0.277793, -0.142230208, -0.005770931355, 0.102163851, 0.153043365], [-0.86911501, -0.7908767050000001, -0.657898295, -0.491306225, -0.292629955, -0.08084879428500001, 0.0932937125, 0.175206605, 0.15357790500000001, 0.07625248700000001, 0.0099851529085, -0.0051896237420000005, 0.03485252025, 0.099074057, 0.12698404, 0.0744006, -0.031427724175, -0.10262353900000001, -0.06531140795, 0.07373802532, 0.220100475, 0.2609813, 0.165117151, 0.009006340120000001, -0.10121942499999999, -0.11284409249999999, -0.038339362395, 0.0742786855, 0.16968858, 0.20793837499999998, 0.17730374000000002, 0.098994868, 0.023372278175, -0.0021828759965, 0.023013851600000003, 0.0530501455, 0.03809493355, -0.04536547632599999, -0.182816435, -0.31390916999999996]]","[[-0.1411551465, -0.257569825, -0.42473962, -0.61873309, -0.80649472, -0.9782853699999999, -1.12275825, -1.1995833500000002, -1.16285325, -1.0152718649999999, -0.8298011, -0.69725476, -0.659284885, -0.69240803, -0.7404522849999999, -0.763527535, -0.75691862, -0.73584383, -0.712220165, -0.68999055, -0.6651897449999999, -0.60790849, -0.47964819, -0.297920295, -0.134035406, -0.02362981086, 0.090392291, 0.30506048, 0.63862479, 0.9624515100000001, 1.0840104, 0.930507005, 0.662493965, 0.5623759150000001, 0.7450451499999999, 1.03860858, 1.20531365, 1.17926395, 1.029620405, 0.863886945], [-0.559041425, -0.558587105, -0.539775585, -0.5898363, -0.65990419, -0.6302628149999999, -0.45578094999999996, -0.2261242, -0.08235055649999999, -0.089533374, -0.19563883499999998, -0.298246575, -0.33358707000000004, -0.298708035, -0.21614901499999997, -0.11985649150000001, -0.055087595499999996, -0.040934265500000004, -0.0467466485, -0.044856356, -0.0542035045, -0.09485505350000001, -0.14199819, -0.151843695, -0.1042040145, -0.021439963355, 0.0421323165, 0.0547136585, 0.044002842, 0.048296095000000004, 0.056894863, 0.042915603999999996, 0.021880326000000002, 0.035595199, 0.113935545, 0.26767748, 0.47862226, 0.6919036850000001, 0.831111665, 0.817786175], [-0.74566407, -0.64819951, -0.46104539, -0.22718603, 0.009538914235, 0.188099195, 0.24753580500000003, 0.17394113, 0.03228040895, -0.0653757485, -0.047739567000000004, 0.0621544770825, 0.18265883500000002, 0.23468124499999998, 0.17564159000000001, 0.0255944502885, -0.1276746055, -0.18107218, -0.093768414, 0.07805832547, 0.21223639, 0.202581895, 0.044325955864999995, -0.1595975325, -0.28514210500000003, -0.271752115, -0.1389659815, 0.040186819165000005, 0.17553118999999998, 0.19808309000000002, 0.09119348995, -0.09310939190999999, -0.24834494499999998, -0.27700226, -0.164085842, 0.01575647086, 0.15360001499999998, 0.1572125, -0.0039622691499999994, -0.24958571]]","[[-0.16962754, -0.23958725, -0.17830517, -0.00496106875, 0.184100378, 0.322013095, 0.393150915, 0.34088419999999997, 0.0394875809, -0.53166583, -1.10309662, -1.2742719, -0.911655955, -0.283461541475, 0.2159256305, 0.40264177500000004, 0.34743481000000004, 0.19757379, 0.042489924639999996, -0.079158019, -0.1158647535, 0.01140353505, 0.329548055, 0.6818529, 0.7140167049999999, 0.1579666415535, -0.760363815, -1.39360545, -1.3681233499999998, -0.9409067600000001, -0.490100385, -0.009863429275, 0.62683402, 1.196329165, 1.2992997, 0.8828668199999999, 0.34048242, 0.091959251, 0.202418015, 0.40322836500000003], [0.010896289575, -0.0471179985, -0.063446158, -0.06278025699999999, -0.047522296, -0.0044318716875, 0.0655681605, 0.128154555, 0.13115396499999998, 0.0494112391384, -0.0924913555, -0.243068625, -0.35247850999999997, -0.385794145, -0.336777655, -0.23240397999999998, -0.109629491, 0.00772022672, 0.10081749300000001, 0.146465335, 0.135486275, 0.086309527, 0.0330021165, 0.00645525265, 0.01683593865, 0.046932906, 0.0706116525, 0.07265281950000001, 0.046756440499999996, -0.0067747994245, -0.073242007, -0.133537335, -0.18624676, -0.239889295, -0.28971845, -0.32128415, -0.32372077, -0.28889052, -0.21812618, -0.1353699935], [-0.7953204549999999, -0.81388079, -0.700400675, -0.500222825, -0.25801704000000003, -0.00508119933, 0.235795325, 0.43194868, 0.5325969, 0.49374387, 0.320107365, 0.083404606745, -0.111419054, -0.197999175, -0.18902667999999997, -0.137583775, -0.072263183, 0.0126195836, 0.11586827749999999, 0.20054662499999998, 0.20798796500000002, 0.104248359, -0.07702424608, -0.24596130500000002, -0.32195018500000006, -0.285869025, -0.17741499000000002, -0.0576926817, 0.030754226635, 0.08326784849999999, 0.118374235, 0.15005436, 0.17786088, 0.18932273500000002, 0.165079645, 0.0963305005, -0.00010051802549999995, -0.093753527, -0.1600589, -0.180397305]]","[[-0.161367275, -0.189576365, -0.13947301850000002, -0.0561014245, -0.0079419244, -0.011507360250000001, -0.031162192499999998, -0.08201848699999999, -0.277323485, -0.6722935750000001, -1.0608608099999999, -1.092130655, -0.67343315, -0.102530539155, 0.268629395, 0.35602106499999997, 0.29480011, 0.21451653, 0.14032188, 0.0606908155, 0.01399264105, 0.0800143325, 0.29106165, 0.53363422, 0.5404052699999999, 0.0923087929, -0.663976885, -1.22322445, -1.2444096500000001, -0.8964648900000001, -0.50092739, -0.08533032953, 0.45447447500000004, 0.9518777900000001, 1.07443186, 0.754604675, 0.30299112, 0.093469938, 0.228480725, 0.48076255], [-0.12378108450000001, -0.162779645, -0.21074486, -0.29251603, -0.35935569, -0.33855363, -0.21644833500000002, -0.0691947495, -0.0049759274335, -0.070317858, -0.220616215, -0.373380735, -0.46573924, -0.46939543499999997, -0.39121274, -0.273614215, -0.16652187000000002, -0.088079754, -0.0317717845, -0.00426252545, -0.022527376600000003, -0.079118122, -0.136920035, -0.156986665, -0.128976265, -0.081991513, -0.058854139, -0.074618684, -0.110007427, -0.141514735, -0.16095690999999998, -0.17084168, -0.17932977, -0.19097147, -0.19157220500000002, -0.1595199, -0.09231297599999999, -0.0062538286539999995, 0.071919096, 0.10340298649999999], [-0.98427165, -0.9123588300000001, -0.7187666149999999, -0.45095346, -0.143595313465, 0.162147128, 0.40181022499999997, 0.5012495849999999, 0.42477046, 0.21935371499999998, -0.002286055055, -0.1325960285, -0.129963426, -0.034095919618, 0.06711461199999999, 0.1065148415, 0.08814343749999999, 0.0669406685, 0.08360930800000001, 0.123734375, 0.131883635, 0.0656930201, -0.0549007471115, -0.15648628, -0.17409432500000002, -0.09793174, 0.0327898445365, 0.162921055, 0.250454375, 0.27972311, 0.256806365, 0.201098565, 0.14229429, 0.10896631, 0.106826695, 0.113504755, 0.097451928, 0.03460010282, -0.0801192655, -0.215022975]]","[[-0.1829962, -0.0929688165, 0.08091399835, 0.19281805999999999, 0.13519947200000001, -0.019016774860000002, -0.089768258, -0.077701067, -0.27811289, -0.9287437300000001, -1.7556017, -2.13036615, -1.7805676, -1.077608175, -0.54170363, -0.32308382, -0.252621785, -0.19340886499999999, -0.186585865, -0.30368592, -0.47447396, -0.503226115, -0.253940764, 0.1372589563525, 0.2226980365, -0.43295517725000005, -1.6975384, -2.7930360000000003, -3.09987705, -2.7590898499999996, -2.1549055999999998, -1.28518269, -0.06724942135, 1.1451168699999998, 1.84310675, 1.8842942999999999, 1.5365427500000002, 1.1882286, 1.0519547, 1.031630185], [0.15728310499999998, 0.14649161, 0.0937326685, -0.014095938609500001, -0.12097002500000001, -0.15247716, -0.085666904, 0.024459964950000003, 0.08181618, 0.024489359805, -0.131643814, -0.318478675, -0.458707185, -0.496130155, -0.42454065, -0.292324545, -0.163831265, -0.072816804, -0.01867193855, 0.0082062432885, 0.014326264, 0.0015154259444999998, -0.0246898115, -0.043585582, -0.0364082835, -0.011871311551500001, 0.007294431015, 0.0092721367, -0.0118205128315, -0.06595596249999999, -0.151936935, -0.24297269, -0.29505054000000003, -0.26558419499999997, -0.1461778465, 0.010501202017499999, 0.125492374, 0.16474887, 0.15446147999999998, 0.131191845], [-0.8244626049999999, -0.8235522799999999, -0.64109448, -0.34598221500000004, -0.012898386565, 0.30303593, 0.5590066149999999, 0.70636758, 0.69541533, 0.511549505, 0.2125016585, -0.076464222985, -0.230434025, -0.218657445, -0.1194128485, -0.023496096535, 0.053262877, 0.145920648, 0.25705673, 0.32580259, 0.275463665, 0.085048460665, -0.1783169495, -0.39883209999999997, -0.489557785, -0.43706265, -0.29238895, -0.129406897, 0.0024555926565, 0.09747961050000001, 0.17312113, 0.23688646, 0.27289435, 0.251405285, 0.1558732, 0.0150394166765, -0.1042551575, -0.15733872999999998, -0.15886066, -0.143433245]]","[[-0.824699355, -0.6654081949999999, -0.439579035, -0.241298495, -0.16924428500000002, -0.29586415, -0.561307675, -0.692684065, -0.34465429929999997, 0.4982809825, 1.3054469649999998, 1.45621475, 0.876514845, 0.037466945705000004, -0.57299158, -0.810535485, -0.800136195, -0.72020127, -0.6767550400000001, -0.7009359700000001, -0.801329385, -0.9854650049999999, -1.2158069500000002, -1.3241546, -0.9761904749999999, 0.07413393315, 1.5442103, 2.7334023000000003, 3.2638763, 3.26511775, 2.7504995500000002, 1.4462965600000002, -0.371414227585, -1.52679365, -1.10693445, 0.44334372569999997, 1.71776195, 1.76373695, 0.9117941, 0.22036270000000002], [-0.010056152320000001, -0.057496995999999995, -0.0797436525, -0.08675726750000001, -0.0846125925, -0.07373436500000001, -0.054551276, -0.0340405815, -0.031251547500000004, -0.0655764805, -0.135992524, -0.21935557, -0.28463258, -0.30588029, -0.273998985, -0.20478673, -0.128001482, -0.065764245, -0.026272614500000003, -0.00919991005, -0.00744413505, -0.0109527198, -0.01357591, -0.012349846650000001, -0.005704508350000001, 0.0023832453978, 0.0040378561, -0.004478901862, -0.0227596885, -0.051653344, -0.09029248100000001, -0.13155340000000001, -0.16454111999999999, -0.177451275, -0.16167588500000002, -0.11999636000000001, -0.0672558835, -0.0170419286285, 0.02720007645, 0.0629398125], [-0.158073125, -0.15750772, -0.15685095999999998, -0.141879305, -0.1103202115, -0.07716648250000001, -0.058308733, -0.0537001055, -0.0539102735, -0.051703976000000006, -0.044486043, -0.034489692, -0.024130410499999998, -0.010864624750000001, 0.004674954854, 0.0154223295, 0.024351484, 0.045508605, 0.076791502, 0.0950450095, 0.082603694, 0.043674078, -0.0012167323835, -0.0307406185, -0.03943343, -0.0379655605, -0.032255143, -0.01567923335, 0.0135223080365, 0.045695578, 0.070522373, 0.07701915050000001, 0.0550868725, 0.006808431554999999, -0.0545101805, -0.10942146850000001, -0.13728292, -0.13221553, -0.1108851415, -0.0887218855]]","[[-0.22181709000000002, -0.0804414273, 0.046266959090000004, 0.0721067705, -0.01154678228, -0.12299649750000001, -0.16071007999999998, -0.12629263, -0.16992305500000002, -0.43943495, -0.859415345, -1.1394202, -1.0675380749999999, -0.732817785, -0.39470344500000004, -0.21342278, -0.17491167000000002, -0.19552240999999998, -0.229678495, -0.279577405, -0.33123194, -0.31852318, -0.1794788475, 0.0259248051925, 0.05696539195, -0.34945072000000005, -1.138241695, -1.8477921499999999, -2.07344855, -1.86303185, -1.4531119000000001, -0.888531745, -0.14044749635, 0.638105575, 1.20618044, 1.4331873, 1.3686283000000001, 1.1982146, 1.07974285, 1.0124098750000001], [-0.110672655, -0.110791605, -0.12026223999999999, -0.156036415, -0.19764754499999998, -0.20646725, -0.16175094999999998, -0.081251127, -0.01663526645, -0.0170764099, -0.08940569699999999, -0.196861605, -0.28723158000000004, -0.31859523500000003, -0.278414675, -0.19189092500000002, -0.1014573155, -0.0319359614, 0.017243468508, 0.05210059399999999, 0.07218196, 0.075628403, 0.066682902, 0.0583806935, 0.0637632235, 0.0802726915, 0.0911427345, 0.0847270655, 0.0623597015, 0.0278564044, -0.0169137687145, -0.062219155, -0.0847356475, -0.0565554545, 0.0336150678265, 0.1594254095, 0.2659209, 0.315081945, 0.316015765, 0.30224296500000003], [-0.530502295, -0.500944525, -0.36570433999999996, -0.1551814175, 0.09733791365, 0.35587995, 0.5720202400000001, 0.6822047000000001, 0.6348983100000001, 0.43714652, 0.172336138, -0.03861385647, -0.112449385, -0.061866947000000005, 0.027058292879999998, 0.08688625800000001, 0.12691565000000002, 0.19395167000000002, 0.294559335, 0.36738673, 0.32828263999999996, 0.1481594745, -0.105505823875, -0.31105495, -0.382069635, -0.317524095, -0.17974907, -0.038655538745, 0.070692262, 0.152089435, 0.218505215, 0.26296673, 0.25653601000000004, 0.17230557999999999, 0.018732103280000002, -0.144599067, -0.24086987499999998, -0.24228038999999998, -0.188868555, -0.130714145]]","[[0.05252618398, -0.05213088, -0.09938124050000001, -0.128437835, -0.18867417, -0.2879369, -0.393365795, -0.48719523000000003, -0.59274394, -0.7091526949999999, -0.7449435, -0.5989660400000001, -0.32137823, -0.08904320800000001, -0.013800560600000001, -0.056575754500000006, -0.11294886500000001, -0.129864745, -0.13120151, -0.15386687500000001, -0.17698814, -0.12221868450000001, 0.05816417245, 0.28668108, 0.37909708000000003, 0.2065583085, -0.13370883333, -0.368722365, -0.33747445, -0.1432998715, 0.0385399907, 0.18272344499999998, 0.35977345499999996, 0.55932393, 0.6763122300000001, 0.6517596, 0.569988625, 0.5676320499999999, 0.6584432200000001, 0.7059536350000001], [-0.19421309999999997, -0.23899225999999998, -0.32232638999999996, -0.449189065, -0.539208595, -0.51503741, -0.38826808, -0.26045193, -0.23575194, -0.32830839500000003, -0.46538887500000004, -0.5686292900000001, -0.604489025, -0.57453917, -0.49881317000000003, -0.41137656, -0.34324281999999995, -0.299571125, -0.26565301, -0.23540821999999997, -0.22133316, -0.23571099, -0.268866365, -0.292010695, -0.28624189, -0.26100574000000004, -0.23520692, -0.212619275, -0.18696841500000003, -0.161352985, -0.150704395, -0.165974265, -0.19783883, -0.213428015, -0.17841042999999998, -0.091348999, 0.01600822534, 0.11258175299999999, 0.17689772999999998, 0.18172289500000002], [-0.67516513, -0.618111895, -0.45536479, -0.21092508899999998, 0.0675998699885, 0.307395585, 0.437007215, 0.42647750500000003, 0.312346845, 0.17849662500000002, 0.0956315715, 0.0757537795, 0.080920249, 0.057572545499999996, -0.024483743648, -0.1381780535, -0.21029013, -0.18489904, -0.0771725535, 0.0356307073515, 0.07329876149999999, 0.011935529149999999, -0.103021153, -0.20292775, -0.25115284, -0.24837585, -0.208312825, -0.14863187, -0.0910606125, -0.053838833, -0.0425682925, -0.043557324499999994, -0.0261618955, 0.0341415385095, 0.1298444305, 0.223301585, 0.26997358, 0.23565527500000003, 0.11605658099999999, -0.037684085495]]","[[0.22807712, 0.184516925, 0.15220720999999998, 0.10297563650000001, 0.0049093778799999994, -0.11163648849999999, -0.15252879, -0.136867905, -0.311768145, -0.896039265, -1.65522615, -2.0000548, -1.6647939500000002, -0.9963898299999999, -0.479732275, -0.25892491, -0.18679669499999998, -0.1229787345, -0.066197042, -0.07195016950000001, -0.13237556749999999, -0.144879125, -0.003196581045, 0.22635529999999998, 0.21766561750000002, -0.37415325590000004, -1.435351995, -2.3282623, -2.5648794500000003, -2.26025125, -1.69594145, -0.8847779649999999, 0.15680262472499998, 1.122008225, 1.70733015, 1.86111995, 1.6989793499999999, 1.4161412000000002, 1.18796995, 1.0214521], [-0.0865070045, -0.087703429, -0.1316822615, -0.23419735, -0.34241737, -0.37638088000000003, -0.306893875, -0.18949593, -0.11437399499999999, -0.12708485, -0.203031605, -0.288257035, -0.342282595, -0.34463612499999996, -0.29324559, -0.2115088, -0.136893815, -0.089687466, -0.06387351050000001, -0.0500200615, -0.05102423, -0.071994951, -0.1048992865, -0.12758276000000002, -0.12102320999999999, -0.09057942199999999, -0.06329665000000001, -0.059128894, -0.073720265, -0.0934256745, -0.11404832000000001, -0.13716511, -0.15568784000000002, -0.14683733999999998, -0.08493096, 0.027189844680499998, 0.146997897, 0.228238915, 0.2572809, 0.24573110499999998], [-0.676003595, -0.649769285, -0.49561071, -0.263555415, -0.015689592925, 0.195545343, 0.33570204, 0.38205644499999997, 0.32533657, 0.18762440000000002, 0.030413264935000003, -0.0695396875, -0.06902051000000001, 0.002823694793, 0.0683702075, 0.08028614149999999, 0.063735025, 0.0708872615, 0.1145376195, 0.157125745, 0.147246865, 0.061091793555, -0.07580123125, -0.20460277999999998, -0.275800375, -0.27391459, -0.21185521999999998, -0.1169069835, -0.0179617074605, 0.065071965, 0.12378781500000001, 0.15603991, 0.15952854500000002, 0.12957005, 0.0678365115, -0.0039691432, -0.0536858155, -0.072692539, -0.0824950445, -0.09587351849999999]]","[[-0.16292612196166664, -0.11536047634844446, 0.014602019446666668, 0.15017792713444444, 0.22428352005000002, 0.2446949725611111, 0.24916927244444445, 0.19866152483333333, -0.018180984195, -0.40260686407722224, -0.7185851305555555, -0.6994243183333333, -0.37862588613115555, -0.049138917610000006, 0.07857378807444444, 0.033538898944444444, -0.04482458477055555, -0.079497050245, -0.09565044143944444, -0.14321914305555555, -0.20603748133333333, -0.1863249277022222, -0.0035213386144444464, 0.25658122092833335, 0.31830744956944446, -0.047297364438333336, -0.6807300044444444, -1.065699557222222, -0.896388647888889, -0.4214864933388889, -0.03941737807, 0.18961171841555555, 0.43164033673888885, 0.6877036172222222, 0.7623466772222223, 0.5594866745388889, 0.26425335581733334, 0.17645052696972222, 0.38179781866333334, 0.6451136039061112], [-0.09369073083555556, -0.10957076863016667, -0.0866262518543889, -0.08831765083333334, -0.12094045025866666, -0.13774853822777777, -0.09761550152844445, -0.01956912038467722, 0.0172939275105, -0.05738220138877778, -0.23152952309, -0.4172601774444445, -0.5226680805555556, -0.5075849633333334, -0.39240630338888893, -0.2409922765, -0.12149129737777777, -0.06188744847911111, -0.04605793573333333, -0.05015579077777778, -0.06675155127777778, -0.09758274628444445, -0.13934788055555555, -0.18028609105555557, -0.20693629172222225, -0.21473989671066668, -0.20761633580555552, -0.18700438585, -0.1552332337917222, -0.13051627042777778, -0.13962160466516665, -0.18954184765, -0.2579527363333333, -0.3096023121111111, -0.3123544807222222, -0.25046160052444444, -0.13792880768350002, -0.011981022822222222, 0.08892038902722221, 0.13708576514227777], [-0.5878348055555556, -0.5513245511111111, -0.4251042394444445, -0.24797623801277777, -0.05653700600888888, 0.11968366663004279, 0.2568674264222222, 0.33004968195483336, 0.3144228466444444, 0.20776027317727777, 0.049617236319444445, -0.09171993637275667, -0.15788090787777778, -0.13961441397330002, -0.08034494283333334, -0.02970793406111111, 0.004041056315555556, 0.043964107833333335, 0.09626804032366668, 0.1322882472763911, 0.11549271023333332, 0.03637774443788889, -0.0757525752795, -0.17469080425555558, -0.2327253588888889, -0.24878962077777778, -0.22895272095805555, -0.17635093787166667, -0.09882864027777778, -0.012241309314388889, 0.06362191251594444, 0.10948786659455555, 0.11600992491666666, 0.09060326087, 0.049491973197777775, 0.007573242827, -0.02613945265222222, -0.05581254799444444, -0.09441490363177778, -0.13515138685055555]]","[[-0.2870105225022222, -0.2433557932, -0.12163913768000001, -0.00557968125, 0.026398817355555555, -0.02386037179, -0.08988139727777777, -0.14801849488888888, -0.2692119326, -0.5071239361122223, -0.7542063697777778, -0.8098370308416666, -0.6165825588888889, -0.3301059397694444, -0.13659787223333333, -0.0795504893888889, -0.08569719444444444, -0.0934000355, -0.10843043804000001, -0.15791270977777777, -0.22214901110555554, -0.21876649910555557, -0.07334087556611112, 0.15892189794944445, 0.2558584688833333, -0.003013322617388889, -0.5499008675033333, -0.9894364316666666, -1.0105945566666668, -0.7183869457222223, -0.3986058627, -0.14091686153388888, 0.15354862160444444, 0.5262601996427778, 0.8686050838888889, 1.0214571909166665, 0.9316565366277777, 0.7298517432222222, 0.6022326788888889, 0.5870935005555555], [-0.10412012630499999, -0.12560070726666667, -0.15263087253649998, -0.20967777643744445, -0.2638291442222222, -0.26006191540972223, -0.1826680445, -0.07982821119533333, -0.02808224472038889, -0.06799214015284445, -0.17592179416666667, -0.2946332973333333, -0.37427397944444446, -0.38733271166666666, -0.3328315055555556, -0.2395137785, -0.14838335883333334, -0.08144152263111111, -0.03711000692433333, -0.013078477190166667, -0.014306439545222222, -0.03923610546172222, -0.07141922016666666, -0.08705838522222223, -0.07323627996666666, -0.0420046653343, -0.019531754098333333, -0.019539382851333335, -0.036300339536833336, -0.06166779850272222, -0.09473078041272222, -0.1330825506666667, -0.16495384294444446, -0.17068046894444444, -0.1326556648526111, -0.053123505311333336, 0.04165792409333333, 0.1238243978575, 0.17903496360744445, 0.195374101], [-0.6235810272222222, -0.5947565561111111, -0.47143880555555556, -0.2829987251666667, -0.06582191017572221, 0.1372532593522222, 0.28358166855555555, 0.3422978899444445, 0.30629268949444444, 0.20099835055555557, 0.07671772209777777, -0.014981779980500001, -0.0447831856, -0.02324220684166667, 0.005335882954, 0.007577696694833333, 0.0001673647222222222, 0.026686671844444444, 0.09766906272222223, 0.16924041081350003, 0.17795901783333334, 0.09344655888555556, -0.05160835153722222, -0.1826854063888889, -0.2404180703888889, -0.21452092661111113, -0.1318416089403889, -0.030910195681111113, 0.05471340304083333, 0.10728878872222221, 0.12626322171666668, 0.11919896378777778, 0.09639566788888888, 0.06802224187272222, 0.037822224975555555, 0.007013333815166667, -0.01990570478061111, -0.04714266868666667, -0.08972685773888889, -0.14162696772166666]]","[[-0.095803385393, -0.14399251525, -0.0985471384675, 0.032842807499999994, 0.17893614249999998, 0.2920859956835, 0.362603640015, 0.34387844525, 0.1319197475, -0.30411283511, -0.783777385, -1.014324945, -0.8683223525, -0.50876972, -0.2117590835, -0.10979910278249999, -0.15417125355, -0.2506541825, -0.35137773250000004, -0.43542450000000005, -0.45719737250000003, -0.3433083275, -0.0635075670225, 0.26048463875, 0.34415899250000004, -0.0273506854075, -0.6682042125, -1.05486184, -0.9068743825, -0.48813813500000003, -0.16054294758, 0.083545979255, 0.43401546, 0.8276745925, 0.9903751049999999, 0.82377769, 0.5376555875, 0.3894428525, 0.42902711250000003, 0.5105261325], [-0.12628254823024998, -0.2144805495, -0.2087062767395, -0.15572507965, -0.08532197500000001, -0.00037463693500000024, 0.0945559695, 0.16467026175000002, 0.16010841525, 0.065360453235, -0.079733424665, -0.21387864525, -0.29897623, -0.3291239375, -0.31153359, -0.2574962775, -0.1864553055, -0.120800985, -0.07475463025, -0.06072821850000001, -0.09146571375000001, -0.1612930525, -0.23741100499999998, -0.2789679975, -0.2644716225, -0.20708226725, -0.14990935525, -0.13014450575, -0.14546334875, -0.17176522, -0.2034974025, -0.2547537875, -0.32805793, -0.39505794250000004, -0.40842775000000003, -0.3457845475, -0.233014414, -0.1125307906775, -0.011975900000000001, 0.044525442750000005], [-0.719212795, -0.7026049125, -0.6213165025, -0.4910050725, -0.3198520725, -0.1230605841425, 0.0669043105575, 0.2060783125, 0.26214901749999997, 0.2356952385, 0.15531294145424998, 0.062208293129, -0.00085146131, -0.01453369075, -0.004218015, -0.01121463925, -0.0364360362875, -0.03205197301, 0.044009449775, 0.17188135765999998, 0.2686640775, 0.2531600575, 0.1235339091275, -0.03858778194, -0.14323133999999998, -0.15420197625, -0.0894117061975, 0.006978723500000001, 0.09183648860350001, 0.1421623665, 0.15551266, 0.140327024, 0.1120937240875, 0.08462349450175, 0.054969452050000006, 0.010186108037, -0.052106600724999994, -0.12412055066300001, -0.194747065, -0.24066868]]","[[-0.20812072177469085, -0.17474522787975846, -0.05939185207547101, 0.06715264701497585, 0.1323318174589372, 0.1341132171635483, 0.11655172485702898, 0.06687241892149759, -0.10774651849782609, -0.4352020220532367, -0.7425759634057971, -0.7885038402934782, -0.5459587612043671, -0.23125033625193236, -0.052848612699516906, -0.03432666142573671, -0.0768578936, -0.10786666978043477, -0.13456269531714976, -0.18772139253623188, -0.2458024800821256, -0.2209060543729469, -0.04170194969013285, 0.21462978717512077, 0.294527659218599, -0.025441692468683573, -0.622213972042512, -1.0311280612560387, -0.9474110953502415, -0.5592673389396136, -0.21138527175826088, 0.03206897854702898, 0.3110406940623189, 0.6357679107021739, 0.8382888228743961, 0.7948161619371981, 0.5900898124761352, 0.4448413591051932, 0.48379940491400963, 0.602332584439855], [-0.10247635722157851, -0.13022419162905796, -0.13124739452727777, -0.14987519615903383, -0.17842008129603865, -0.17300993248608695, -0.10952902399062803, -0.02173750132826546, 0.01619313363700483, -0.04598530677005314, -0.1875527585461594, -0.3374161166751207, -0.42897170826086956, -0.4320238505434782, -0.35595560258454106, -0.2425021470652174, -0.14165706428743963, -0.07807359417835749, -0.045910579014202896, -0.035414231964323674, -0.04717291519478261, -0.08052468152007247, -0.12260452270531401, -0.15262385892512076, -0.15631046019082126, -0.1386388009652029, -0.11831343325169082, -0.1067770088810145, -0.1022489469363285, -0.1059624499697826, -0.1284354807947343, -0.17350023242028986, -0.22666259055555557, -0.2603478973067633, -0.24675585677166667, -0.17709585655903382, -0.07225009034355073, 0.0339496251443599, 0.11494025331942029, 0.15035543433359902], [-0.6205129005555555, -0.5899402525966184, -0.4708426068478261, -0.29490281953454106, -0.09491936431939614, 0.09566032640848478, 0.24370451658479467, 0.3192048111518599, 0.3040696701690821, 0.20846399794905796, 0.0751864525449988, -0.03827792539763333, -0.08822588342207731, -0.07270292523476812, -0.033162810599710144, -0.011084621365772946, -0.002922778194987923, 0.026537038162946863, 0.09006084259929951, 0.1535187240816918, 0.16263084839855071, 0.0894662263362802, -0.03926119742542271, -0.1604141500984541, -0.2243968831642512, -0.22155266967995169, -0.1685294964163889, -0.089203268044686, -0.007201865502562802, 0.05986790841644927, 0.10284301401417874, 0.11773258155753624, 0.10697117827469807, 0.080005456997064, 0.04513262338623188, 0.007670612631855073, -0.026816146804492753, -0.06095277473043961, -0.10546342646550726, -0.1517299819879227]]"
1,exp_2022_10_04_09,40,"[0, 1, 2, 3, 4, 5, 6, 7, 8, 9, 10, 11, 12, 13, 14, 15, 16, 17, 18, 19, 20, 21, 22, 23, 24, 25, 26, 27, 28, 29, 30, 31, 32, 33, 34, 35, 36, 37, 38, 39]",1.0,0.0,"[False, False, False, False, False, False, False, False, False, False, False, False, False, False, False, False, False, False, False, False, False, False]","[0.0, 0.0, 0.0, 0.0, 0.0, 0.0, 0.0, 0.0, 0.0, 0.0, 0.0, 0.0, 0.0, 0.0, 0.0, 0.0, 0.0, 0.0, 0.0, 0.0, 0.0, 0.0]","[[-0.08097299599999999, -0.01353714877635, 0.09735463700000001, 0.21486022500000002, 0.283546945, 0.29217424999999997, 0.26972503, 0.22780323500000002, 0.156781595, 0.0615962895, -0.03775391165, -0.125815582, -0.18852525, -0.20776786000000003, -0.183168175, -0.14750916, -0.13669104, -0.14456096000000002, -0.1111945075, 0.03487408931, 0.28535249, 0.51161165, 0.59073707, 0.545216255, 0.482077355, 0.45346717, 0.439502455, 0.42399206, 0.42447324000000003, 0.44976688000000004, 0.474581045, 0.46965291, 0.429857605, 0.37039388500000003, 0.31328843500000003, 0.270196775, 0.22703663, 0.16415406999999999, 0.096144024, 0.056079254499999995], [0.127637255, 0.1088660725, 0.070635085, 0.02557014755, -0.007159930489, -0.020536381000000003, -0.020311853499999998, -0.017029482, -0.0225823875, -0.039833792, -0.048293838000000006, -0.016781737775500002, 0.061502127, 0.158863165, 0.23560472000000002, 0.26316468, 0.23764821000000003, 0.17916803, 0.1139465935, 0.062473001, 0.0375893965, 0.034153023500000004, 0.026802703, 0.0018298819435, -0.0135081897, 0.02054954411, 0.09975817599999999, 0.172502345, 0.19323087, 0.16268124, 0.119151255, 0.099284417, 0.1021489265, 0.0998592425, 0.08323781849999999, 0.067330218, 0.0576856025, 0.037404038, -0.012639240695, -0.084409008], [0.028637899135, 0.18091327, 0.2506321, 0.23620032, 0.19290347, 0.17129950000000002, 0.17706640499999998, 0.179983435, 0.145714355, 0.07330637300000001, 0.006931997431, -0.009463639242000001, 0.01890605608, 0.0479004195, 0.0510898075, 0.045004507, 0.057509393500000006, 0.0872171655, 0.097409173, 0.0561325075, -0.0287168526925, -0.11793017300000001, -0.16512337, -0.1450389, -0.06821918, 0.037904373054999996, 0.1473700945, 0.243853115, 0.31022130000000003, 0.306600175, 0.1887949995, -0.03397256541, -0.27250945000000004, -0.41418036, -0.42105078, -0.33807895000000004, -0.21175946, -0.0796272925, 0.0065951934410000005, 0.012366970905000002]]","[[0.08170379, 0.235666625, 0.466039135, 0.612765185, 0.55702525, 0.36574069000000003, 0.18202470999999998, 0.06856656, 0.0255888755, 0.041341646, 0.078676573, 0.1003321855, 0.11406211000000001, 0.14606419, 0.18559745500000002, 0.21173258, 0.25633122, 0.35818561000000004, 0.45316708499999997, 0.39707804, 0.14590079104499998, -0.11907332394999999, -0.15574711600000002, 0.0523551755, 0.31750367, 0.473347455, 0.493599745, 0.459518745, 0.45523314, 0.492008955, 0.5227248999999999, 0.501368465, 0.43389323500000004, 0.40376673500000004, 0.49331057, 0.560603765, 0.158875125, -1.003921845, -2.4201112499999997, -3.0793837], [0.0969698305, 0.06905972, 0.017629770008, -0.0392210575, -0.077729325, -0.0844627445, -0.058301817500000006, -0.012721342529999999, 0.026707713499999997, 0.044995125, 0.057114744999999995, 0.09139889500000001, 0.156298965, 0.23109808999999998, 0.278694295, 0.26776733, 0.19663971, 0.095402559, 0.00726950466, -0.027817763000000002, 0.0049446275135, 0.0747351815, 0.128700855, 0.1458576, 0.14991673, 0.169115165, 0.203598415, 0.23380488, 0.241147205, 0.21741616, 0.168062765, 0.10955295550000001, 0.059944843, 0.0286213915, 0.007183105181, -0.027325905850000002, -0.0825118945, -0.12926558999999999, -0.141215975, -0.128858165], [-0.06599554974, 0.08022719349999999, -0.08564173455, -0.23567949, -0.033381910455, 0.348630215, 0.41763479, 0.061360081875, -0.2711841, -0.227054885, -0.0037456577149999996, 0.042397310949999996, 0.01408923387395, 0.27346155299999997, 0.794613385, 1.0986859, 0.82747568, 0.18038804595, -0.33730494, -0.45758221, -0.293756165, -0.13534988, -0.19034195, -0.33472449, -0.181112811815, 0.3641534675, 0.78830373, 0.5591160150000001, -0.08016281765500001, -0.470445275, -0.415075285, -0.221832245, -0.137780045, -0.08428094950000001, 0.09702289287499999, 0.34207142500000004, 0.34843778000000003, 0.073773588315, -0.029464923235, 0.3634508255]]","[[-0.13462638999999998, -0.137786315, -0.18686133000000002, -0.205157265, -0.12371593750000001, 0.039000924709999996, 0.203233025, 0.29159842999999996, 0.271763395, 0.170808465, 0.0450082351755, -0.06314207050000001, -0.130738845, -0.144137505, -0.110096548, -0.0654866945, -0.051037229999999996, -0.0644109325, -0.03585486702, 0.1265473245, 0.415899095, 0.666109415, 0.7096775049999999, 0.58023659, 0.4432358, 0.38275910500000004, 0.36340717499999997, 0.342784975, 0.328715895, 0.336823355, 0.35477055, 0.35915074500000005, 0.33439821999999997, 0.275679435, 0.19850526500000001, 0.14512759, 0.168412675, 0.29704854999999997, 0.490028455, 0.633837755], [0.20450126999999999, 0.197031855, 0.18327367, 0.15517452, 0.1053218995, 0.0404275739, -0.013007646842, -0.0386401185, -0.0529486015, -0.073361119, -0.0780873435, -0.026544187614, 0.08940060150000001, 0.23573105000000003, 0.35982704, 0.41310100499999997, 0.378984465, 0.28429733, 0.17460219500000002, 0.0932825415, 0.0666058225, 0.07871663500000001, 0.0799594575, 0.048817021, 0.023634404999999997, 0.048208175000000006, 0.112221162, 0.17307138, 0.211140485, 0.23808836, 0.267418255, 0.288201735, 0.263561, 0.17585309, 0.06259827600000001, -0.02881203481, -0.090073041, -0.133079705, -0.162487065, -0.1721875], [0.0947741655, 0.14141866, 0.17012729499999998, 0.172207425, 0.16690961999999998, 0.165439705, 0.16087563, 0.14310684, 0.115988295, 0.10123457549999999, 0.117782875, 0.157632315, 0.19123441, 0.19441518, 0.16567418499999997, 0.1228796, 0.08750126500000001, 0.07131581599999999, 0.0727224815, 0.0756355895, 0.0575635575, 0.0163171147295, -0.019914452449999998, -0.0246376575, -0.001485787687, 0.031281715, 0.0720039445, 0.13827238449999998, 0.23065765500000002, 0.30450234, 0.29848568, 0.19161951, 0.033143337685, -0.09054039, -0.14181389, -0.146002725, -0.1193785495, -0.0714201615, -0.0390677155, -0.0606352505]]","[[-0.14789925, -0.15197516, -0.15448309500000001, -0.08870167849999999, 0.07950496806, 0.30369185000000004, 0.49472930499999995, 0.5808526350000001, 0.55182577, 0.45740561, 0.34958697, 0.24883382999999998, 0.16970989500000003, 0.13315981000000002, 0.13949040000000001, 0.165421755, 0.20015764, 0.25442905499999996, 0.325006075, 0.375549595, 0.36543814500000005, 0.2926591, 0.20923032500000002, 0.18627066, 0.23804499499999998, 0.2954337, 0.288183205, 0.23100885999999998, 0.19169237, 0.19566133, 0.20895769, 0.19782655, 0.15878389, 0.10683010700000001, 0.066456643, 0.0546023755, 0.057311514499999994, 0.05143228, 0.046525119999999996, 0.0632143295], [0.31495892000000003, 0.30223868, 0.25089479000000003, 0.18039879, 0.10180181749999999, 0.018649158435, -0.05867956999999999, -0.1256375005, -0.19120382500000002, -0.24747887999999998, -0.25094675, -0.162723034, 0.0024408721950000003, 0.1890343815, 0.342637695, 0.42572199499999996, 0.427344515, 0.36343281, 0.25656012, 0.139827664, 0.05798933, 0.0225511085, -0.008544782418, -0.0646371565, -0.10637015650000001, -0.0787195015, 0.007921660415, 0.09294544249999999, 0.13948475999999999, 0.15935994, 0.18329942, 0.22669693500000002, 0.272988485, 0.29725454500000004, 0.293158655, 0.254070715, 0.163953545, 0.0333609406555, -0.07941788749999999, -0.097883675], [0.22952689499999998, 0.22989431, 0.23716081500000002, 0.225363245, 0.193123015, 0.157918545, 0.143808575, 0.15951828, 0.184696165, 0.19557696, 0.19474767499999998, 0.19909726500000002, 0.21253283499999998, 0.22239863499999998, 0.21318231999999998, 0.17256022000000001, 0.0989840725, 0.018407994258, -0.032010990499999996, -0.0554607135, -0.0896304625, -0.145659835, -0.198535065, -0.230689935, -0.247122375, -0.24747171999999998, -0.21170556000000001, -0.12090730150000001, 0.01153288586, 0.131385788, 0.179201385, 0.14402994, 0.0742624975, 0.030252480999999998, 0.0360390735, 0.0783163815, 0.14017607999999998, 0.206242585, 0.248463265, 0.24447886]]","[[-0.073506882, -0.01337966825, 0.113290977, 0.298078605, 0.481464445, 0.610749915, 0.6721681599999999, 0.65370698, 0.541396475, 0.35783164, 0.1603879985, 0.00521823013, -0.0723875895, -0.066159891, -0.008009404365, 0.0478717055, 0.069353488, 0.0689952155, 0.083437814, 0.14166230000000002, 0.237175845, 0.318696845, 0.345128895, 0.34604828499999996, 0.37213583499999997, 0.41688291, 0.44177484499999997, 0.45092744500000004, 0.48626210999999997, 0.5550617299999999, 0.61064825, 0.603706585, 0.5180766, 0.373773115, 0.22551968, 0.13221999, 0.1012212425, 0.0861614065, 0.0514403025, 0.0029149520229999996], [0.26160015999999997, 0.155909865, 0.06572781899999999, 0.0093594067345, -0.01670533545, -0.0271195085, -0.028035980500000002, -0.021325614000000003, -0.0169847365, -0.0177216635, 0.003553132755, 0.0842232245, 0.227445715, 0.391608265, 0.51379516, 0.5391534149999999, 0.45557205500000003, 0.303698505, 0.1426424785, 0.02169691889, -0.030761524, -0.0289418705, -0.025751898500000002, -0.0475770535, -0.050278645500000003, 0.022440317485, 0.1537824005, 0.26509212, 0.30081293, 0.272496655, 0.230353185, 0.212371435, 0.2145146, 0.20671414, 0.16819437, 0.0964491805, -0.0020852859395, -0.11547258149999999, -0.21864985999999997, -0.266643595], [0.3063297, 0.32676226999999997, 0.29689883, 0.23508015499999999, 0.174038255, 0.135458205, 0.1203998, 0.117665965, 0.11769863000000001, 0.12335746500000001, 0.14498281999999998, 0.18343817, 0.2232247, 0.242481135, 0.228079575, 0.18182295499999998, 0.1151299465, 0.04200916675, -0.023133966495, -0.0702934705, -0.09830409400000001, -0.10905236500000001, -0.107517755, -0.10700968, -0.11227292999999999, -0.1008459195, -0.0472348186, 0.038529650459, 0.11065344149999999, 0.12164304, 0.0563078388, -0.06255329698499999, -0.19047065, -0.280767835, -0.30543216, -0.258507765, -0.15099796599999998, -0.0350472370965, 0.010123896536999999, -0.0380392831]]","[[-1.5043806499999999, -0.879262985, 0.160989371565, -0.028322369200000003, -2.231840295, -5.2223764500000005, -7.1383658, -7.0924341, -5.4419641500000004, -3.16792125, -1.068490585, 0.5216985028500001, 1.42697715, 1.5275550000000002, 1.048199715, 0.49353640499999996, 0.117339846495, -0.247173533, -0.78569045, -1.3390476, -1.4346902499999998, -0.6736916505, 0.7045197904, 1.6787352999999998, 1.47586365, 0.666275325, 0.421569385, 0.8973571250000001, 1.1867492, 0.75801321, 0.10631196647499999, -0.022184945245, 0.60775798, 1.62095285, 2.2481629, 1.8775414499999998, 0.57345468175, -1.230556805, -3.2128111, -4.80462845], [0.217787655, 0.23404208, 0.20375121, 0.13928537, 0.065181499, -0.000753143384, -0.047345804500000005, -0.07612978949999999, -0.1046185335, -0.13796118500000001, -0.14287687, -0.0790228295, 0.04747651117, 0.18741312000000002, 0.291482755, 0.332240515, 0.310294945, 0.25011619, 0.18087767, 0.13115703, 0.12332737999999999, 0.144541115, 0.144258415, 0.094662394, 0.036130907, 0.0323156965, 0.094334263, 0.17593154, 0.22809738, 0.237941295, 0.22872478999999998, 0.232873555, 0.255273315, 0.273493325, 0.2688656, 0.23311724, 0.16354933500000002, 0.070361948, -0.025150527710000002, -0.10161955], [0.182611925, 0.194288165, 0.219925055, 0.220103945, 0.19364820000000002, 0.165923385, 0.166333135, 0.20325174499999998, 0.252432465, 0.290222165, 0.32649828, 0.38249527, 0.45192009, 0.49919542499999997, 0.48872978000000006, 0.40908654499999997, 0.2867125, 0.184668155, 0.153953285, 0.17223233000000002, 0.17204294, 0.1269889585, 0.071787131, 0.048336940999999994, 0.064219135, 0.099688672, 0.14142498, 0.21034063, 0.322704005, 0.426607115, 0.42923044, 0.29871014, 0.11476295650000001, -0.003929886105, -0.02002369775, 0.011389476389499999, 0.0386464725, 0.052076466999999994, 0.0500916755, -0.0011442311285]]","[[-0.0130658266885, 0.027231858249999998, 0.08022851749999999, 0.151874095, 0.24539782, 0.357582835, 0.459502095, 0.498063795, 0.44478689000000005, 0.3286772, 0.20798533, 0.12882243499999999, 0.11254954, 0.15493368500000002, 0.22468074999999998, 0.278891365, 0.294127515, 0.28224412, 0.273392975, 0.27956354, 0.272341, 0.21149119, 0.10868258000000001, 0.0285480701, 0.007926299650000001, 0.014282472, 0.0008449210194999999, -0.030027303999999998, -0.0404581195, -0.014969176693999999, 0.021462933249999996, 0.0352592675, 0.014924663175999999, -0.02143878095, -0.040631157499999994, -0.0292798905, -0.0114538585, -0.01141018085, -0.0134822649, 0.003060906239], [-0.019523805066, 0.036819996, 0.027672776649999998, -0.016266527763500002, -0.0353451255, -0.0059944250975000005, 0.0405085495, 0.057537151499999994, 0.028632258199999996, -0.0226619689025, -0.0559378125, -0.044597160000000004, 0.008429081195, 0.078826034, 0.13634426, 0.14822276499999998, 0.088285576, -0.040299193445, -0.195174085, -0.306660295, -0.311387775, -0.20204252, -0.0477600385495, 0.063711845, 0.11410675749999999, 0.157742505, 0.238234635, 0.33611992999999996, 0.398339035, 0.393265635, 0.33764526000000006, 0.28727902499999997, 0.2969276, 0.3774154, 0.484812205, 0.54920704, 0.521572125, 0.39635684499999996, 0.20702107000000003, 0.016020233986], [0.317984875, 0.32477908, 0.28464403, 0.214206095, 0.139832115, 0.087522384, 0.0698858965, 0.08139806699999999, 0.10628103400000001, 0.134003735, 0.165154945, 0.20499509, 0.25688325, 0.311325475, 0.33105694, 0.263400075, 0.095741281505, -0.10103414805, -0.224423975, -0.24501287000000002, -0.217425515, -0.200422355, -0.20508737, -0.20948, -0.19041047, -0.14217575999999998, -0.08412862199999999, -0.044802923, -0.035856475, -0.0474970275, -0.0612574345, -0.0645624035, -0.0590505805, -0.050244768, -0.024392111074999997, 0.038205369419999996, 0.1169050595, 0.15582826, 0.126336073, 0.061703089999999995]]","[[-0.23838224, -0.108511251, 0.041671557155, 0.170512585, 0.23728176999999998, 0.24751991499999998, 0.23852368999999998, 0.228999905, 0.21220593000000001, 0.18130874, 0.141087885, 0.111263235, 0.114061805, 0.153888, 0.217443925, 0.299190365, 0.40908213, 0.522170675, 0.532402525, 0.327662655, -0.036655260190000004, -0.31073094, -0.30690412, -0.10132552462, 0.1027134265, 0.19155714499999998, 0.18448430999999998, 0.161705605, 0.18434301, 0.24906404999999998, 0.298825285, 0.28726526, 0.23545334499999998, 0.208855745, 0.23825690000000002, 0.253233815, 0.09740607262499999, -0.31125719, -0.7868187050000001, -0.980732425], [0.139227755, 0.10831468450000001, 0.026506667545, -0.0881361395, -0.199921335, -0.27276063, -0.28149854, -0.227481285, -0.14309202499999998, -0.0611233075, 0.021581422935, 0.13424932650000002, 0.287183655, 0.445694565, 0.540702285, 0.507487055, 0.33645272499999995, 0.089829948555, -0.13480639, -0.25068322, -0.218107275, -0.07232364886, 0.092905051, 0.19792065, 0.23344637, 0.23832728, 0.24102325, 0.23878531, 0.216141215, 0.16526025, 0.0928779755, 0.0159413619875, -0.044945487, -0.065557659, -0.027601974342000003, 0.054546870250000004, 0.130381267, 0.152872, 0.108584774, 0.016740343098], [-0.048432332933, 0.084713659, 0.22202911, 0.32797662000000005, 0.388742535, 0.389859625, 0.317764525, 0.17758483900000002, 0.0008866403349999999, -0.159847874, -0.24268647999999998, -0.202279765, -0.040366093469999996, 0.1858067665, 0.3808937, 0.4588518, 0.42480055, 0.391591925, 0.428768245, 0.44765326, 0.346600825, 0.165819218, 0.03104308015, 0.0265593692, 0.144134661, 0.306653925, 0.42965404, 0.48064429500000005, 0.46400706999999997, 0.364176165, 0.15269056, -0.127360496205, -0.33690643000000003, -0.37324909, -0.29876358, -0.247784325, -0.23110303999999998, -0.149557833, -0.012038040024000001, -0.049312003815]]","[[0.152835331, 0.20857952000000002, 0.025548092914999997, -0.230237185, -0.33573817499999997, -0.26065699, -0.125763015, -0.0100478635015, 0.073154522, 0.11497098, 0.11564472, 0.07628407, -0.01309674741, -0.11701598799999999, -0.151191095, -0.08746372799999999, 0.013800145345, 0.080974974, 0.10715839799999999, 0.11496853, 0.0991234635, 0.033323974945, -0.1005197975, -0.251428345, -0.321153295, -0.29152932, -0.25032255, -0.27940975, -0.362521945, -0.425101325, -0.41625183499999996, -0.33926085, -0.24234999999999998, -0.207776185, -0.282630635, -0.35182505, -0.180353822155, 0.328061224, 0.9190023549999999, 1.1951035], [0.27933098, 0.318368545, 0.273189795, 0.1378383155, -0.055446562025, -0.24728112500000002, -0.368383875, -0.38016984, -0.30818834, -0.210421385, -0.10891535199999999, 0.021872649905, 0.200432485, 0.397729045, 0.5454753999999999, 0.57023179, 0.44249903, 0.20478176, -0.05492071099, -0.242992375, -0.29153474500000004, -0.199292905, -0.045694067465, 0.074740584, 0.1375168, 0.18303812, 0.24033066000000003, 0.291462165, 0.29868371, 0.237277245, 0.1149942945, -0.021274534015, -0.1106210235, -0.11711527999999999, -0.0506550376, 0.037846600189999996, 0.0912268065, 0.081475345, 0.009834788165, -0.10471910899999999], [-0.0909491115, -0.014247601250999999, 0.0656794655, 0.12940469, 0.164045665, 0.149878615, 0.0750054205, -0.049397783155, -0.18853831499999998, -0.2923562, -0.31896754, -0.26056848, -0.1434101915, -0.0041193879675, 0.132899648, 0.2604865, 0.369241895, 0.42495019999999994, 0.39183031999999995, 0.27506769999999997, 0.12037716700000001, -0.0096651365815, -0.054468300000000004, 0.0179274908675, 0.17880135500000002, 0.34448287499999997, 0.43946061999999997, 0.45167171000000006, 0.41554589, 0.36021514000000004, 0.293407805, 0.21781209499999998, 0.145727795, 0.104550828, 0.121854435, 0.201686755, 0.31376729999999997, 0.39081915, 0.362017575, 0.2013011095]]","[[-0.783218945, -0.49812786000000003, 0.2525632635, 1.269370225, 2.0080214, 2.14273925, 1.8178527, 1.39885875, 1.1998784, 1.2849937, 1.4467046, 1.47445355, 1.3691761500000001, 1.2404638, 1.14162265, 1.11334515, 1.2432435499999999, 1.5087780499999999, 1.6212871000000002, 1.22294019, 0.36715496363, -0.34215427, -0.37593729000000004, 0.118946482765, 0.6060254900000001, 0.783627065, 0.73267689, 0.6676459199999999, 0.7203956300000001, 0.87480619, 0.994084375, 0.9369873049999999, 0.711393885, 0.516765835, 0.55504118, 0.663385365, 0.18170449815, -1.399988655, -3.4981839000000003, -4.72746265], [0.2874676, 0.279197345, 0.20555397, 0.0782446086, -0.07090823196, -0.190524135, -0.2291223, -0.18136949000000002, -0.097009095, -0.025206028421, 0.03679970845, 0.1283561055, 0.27319461, 0.445237055, 0.571872525, 0.58186979, 0.461838385, 0.26001563, 0.052351007039999994, -0.082400313, -0.09819815350000001, -0.02406501161, 0.0611851305, 0.110240898, 0.13584808, 0.16463626, 0.19758067, 0.216245795, 0.200147355, 0.1400291995, 0.04912297803000001, -0.04387993762, -0.1119147705, -0.143171315, -0.15551821, -0.187365435, -0.24943884, -0.29956953, -0.293849925, -0.23154890000000003], [-0.031944474045, 0.15518445849999998, 0.359739395, 0.531388775, 0.630115105, 0.61883154, 0.49460599, 0.30976755, 0.14142826149999999, 0.0397519905, 0.0228630435, 0.104307445, 0.28689066, 0.521921705, 0.686921515, 0.6417516999999999, 0.38439293999999996, 0.1229101285, 0.047509832999999994, 0.1014233585, 0.132960195, 0.1052039455, 0.064752085, 0.043240297999999996, 0.0397305255, 0.0353015115, 0.0034058795115, -0.0559597, -0.11847047849999999, -0.189971975, -0.3151537, -0.48749493, -0.60415596, -0.598980155, -0.55385792, -0.5671088799999999, -0.58192529, -0.47715973, -0.30912064, -0.356797945]]","[[0.10019240099999999, 0.06519486899999999, -0.029528552279000003, -0.0819901565, 0.01535177894, 0.24321568500000001, 0.466236965, 0.55257936, 0.47676946000000003, 0.317138075, 0.16148109649999998, 0.0472634246, -0.013963323258, -0.014599622435, 0.0283216403, 0.074722489, 0.10193632700000001, 0.120122405, 0.148462755, 0.19065649, 0.217718375, 0.17417987000000001, 0.047516227290000004, -0.0746113605, -0.093982598, -0.029268728785000003, 0.02272626655, 0.0190508919, -0.0021513888535, -0.0034501700347500004, 0.00359981875, -0.01292690853905, -0.06926916600000001, -0.15324548500000001, -0.22695625, -0.249777545, -0.19700466, -0.05293984217, 0.17235219699999998, 0.39994370500000004], [0.15523514, 0.22762147, 0.21273271000000002, 0.1371106135, 0.0706564535, 0.044997065, 0.0343983115, -0.0026697497199999996, -0.08324163750000001, -0.18083952, -0.233751795, -0.19244877999999999, -0.06834120854, 0.0780166538, 0.186554145, 0.221003395, 0.17828229499999998, 0.09150158850000001, 0.001034815415, -0.066387461, -0.0913204445, -0.075763926, -0.06215492549999999, -0.085087201, -0.1005864175, -0.0244440320725, 0.1444145845, 0.295088535, 0.32054675000000005, 0.22823162, 0.127586045, 0.12662758, 0.236166895, 0.37184485, 0.44185625500000003, 0.41122758499999995, 0.30020153, 0.152395885, 0.013023901085000001, -0.075238232], [0.36166815999999996, 0.208648965, 0.02302163234, -0.08107147449999999, -0.0724832945, -0.0033962430249999996, 0.032877633999999996, -0.0201826418835, -0.111669455, -0.14892535, -0.12658789, -0.10988740999999999, -0.1154073, -0.097401893, -0.0652850505, -0.1387433085, -0.415830535, -0.7964222700000001, -1.05432959, -1.1071076, -1.06750875, -1.0669334000000001, -1.1486168, -1.25733045, -1.2387704499999999, -0.91962421, -0.31739715861, 0.2668805615, 0.5280031900000001, 0.498092675, 0.47808354000000003, 0.6767537950000001, 1.038333475, 1.3871627000000002, 1.6393436, 1.84147085, 2.00875505, 2.03469445, 1.81287335, 1.3902633]]","[[-0.011739524877814999, 0.00754889775, 0.00143976788335, 0.0374307621, 0.186864364, 0.43142096, 0.661766625, 0.758311995, 0.686317615, 0.51522421, 0.34256727, 0.22602423500000002, 0.185831415, 0.219288105, 0.292185685, 0.351839185, 0.36950346, 0.36160295, 0.36613852, 0.39295334, 0.38849799500000004, 0.27947004, 0.08060107104, -0.0866273035, -0.126425505, -0.0753459835, -0.035434133, -0.046661575500000003, -0.0687609725, -0.061500215000000004, -0.034392818, -0.022559420499999996, -0.045058018000000005, -0.08538630700000001, -0.105411225, -0.08974866399999999, -0.066066054, -0.049546043500000005, 0.003419608041, 0.11974021950000001], [0.139320269, 0.20614833999999999, 0.211030895, 0.20232937, 0.24761023000000001, 0.35234807500000004, 0.43551116, 0.40372942, 0.24899798, 0.053139452484999995, -0.0963771205, -0.16566499, -0.163597835, -0.1088354945, -0.017063600106000002, 0.08912502500000001, 0.176171185, 0.21440774999999998, 0.197508875, 0.154105235, 0.13223808, 0.156249525, 0.20140237500000002, 0.226253415, 0.229070845, 0.249112775, 0.308529465, 0.37897424, 0.415964885, 0.40830583, 0.38460685, 0.38300312499999994, 0.4146557, 0.4490041, 0.440296015, 0.374598155, 0.278912315, 0.17080749, 0.034357278425, -0.1300952975], [0.22907537, 0.230296035, 0.17036002, 0.10403603049999999, 0.07509336850000001, 0.083481656, 0.099953696, 0.10353806, 0.10139526, 0.10515250500000001, 0.10484838699999999, 0.0920996925, 0.09771065699999999, 0.15851298, 0.22925231000000001, 0.1765180135, -0.07255157559, -0.383173115, -0.533376295, -0.486148425, -0.39892057999999997, -0.40941597, -0.5191783600000001, -0.63215846, -0.629950145, -0.43905004499999994, -0.089221337945, 0.28503953, 0.5361095499999999, 0.622602235, 0.62401257, 0.6413613100000001, 0.71642568, 0.8348586400000001, 0.9649483999999999, 1.0951594, 1.22211885, 1.3034212500000002, 1.2782247, 1.1052509050000001]]","[[0.150821345, 0.13715579, 0.060580785, 0.026910326499999998, 0.1391919185, 0.373030105, 0.59183498, 0.66520331, 0.5730226350000001, 0.4007253, 0.237614535, 0.11698216650000001, 0.051203329, 0.057090458499999996, 0.1186234055, 0.17227858999999998, 0.164388735, 0.1149370185, 0.118252643, 0.257683555, 0.47249554000000005, 0.553445765, 0.3809134, 0.10425271114, -0.051270820099999996, -0.058317822, -0.047656573, -0.09517138149999999, -0.16014782, -0.18875925999999998, -0.18442951000000002, -0.181049625, -0.20424422499999997, -0.254307075, -0.30069171499999997, -0.30394554500000004, -0.23827820500000002, -0.08375784669, 0.15300130550000002, 0.385854575], [0.304173735, 0.256037395, 0.183650275, 0.1148504915, 0.069996802, 0.043573849500000005, 0.01984138905, -0.013685698097000001, -0.060640053, -0.1012609785, -0.1010682935, -0.056656043, -0.0044836329755, 0.035888821, 0.08497039499999999, 0.16160582, 0.260103945, 0.34964562, 0.378275165, 0.32375262, 0.23179122, 0.15672592500000002, 0.09495569400000001, 0.032952395499999995, 0.014717023950000001, 0.0915354155, 0.2330912, 0.350062415, 0.38660806000000003, 0.348193195, 0.26403644, 0.1613645, 0.06417545050000001, -0.008217287675, -0.060187887499999995, -0.12055994549999999, -0.203813635, -0.28800226, -0.335368165, -0.31338296], [-0.23546426, -0.16664856, -0.077147364, -0.0362045815, -0.037674211, -0.029933968499999998, 0.032258311265, 0.154171742, 0.287112955, 0.36550352500000005, 0.38411669000000004, 0.39153011, 0.40671177000000003, 0.40378892, 0.38654942, 0.43286018499999995, 0.63070719, 0.955896175, 1.2680643999999999, 1.4687780000000001, 1.5761023, 1.6424822000000001, 1.6949748500000001, 1.7193347, 1.6214355, 1.249186085, 0.583248945, -0.105946262385, -0.47523298500000005, -0.47090033499999995, -0.36273914500000004, -0.445949855, -0.768644145, -1.14676396, -1.3895217, -1.4787051, -1.4972692, -1.4441415499999999, -1.2480662, -0.94305668]]","[[0.0519748515, 0.0341035375, -0.010576766898500001, -0.0033070281849999997, 0.115129027, 0.293933575, 0.42024161499999996, 0.4256974, 0.330306455, 0.2062478, 0.111443173, 0.0625670565, 0.0555043745, 0.079411444, 0.113652054, 0.143050475, 0.17707935, 0.222949985, 0.241778525, 0.171813615, 0.010127376175000001, -0.162234875, -0.258405585, -0.251856525, -0.17437698000000001, -0.091588193, -0.054153834, -0.0539687735, -0.047876748, -0.01947756515, 0.009265598670500001, 0.0162495455, 0.0035403479964, -0.0090812675, -0.0020696915455, 0.0287363015, 0.078483675, 0.1563959, 0.2699654, 0.371290955], [0.171952805, 0.15598407, 0.100806942, 0.030248539294999998, -0.0273927378, -0.06496394999999999, -0.08563834849999999, -0.09331181100000001, -0.09752724900000001, -0.101275922, -0.0839999325, -0.021989698350000003, 0.0774343255, 0.182757945, 0.26765101, 0.316914105, 0.32168679, 0.27917786499999997, 0.19357987000000001, 0.09041996499999999, 0.017720319, 0.0015765662851500001, 0.0112792213, 0.003958670034, -0.00946565705, 0.017251165367865, 0.093728275, 0.1784199, 0.22549534999999998, 0.218253755, 0.170592795, 0.1176927395, 0.0934111065, 0.10833455600000001, 0.143275425, 0.157017705, 0.115378457, 0.02013797571, -0.094077322, -0.18165224500000002], [0.02107812024775, 0.091869318, 0.13169444, 0.148795505, 0.14184, 0.09396982899999999, -0.00117357032, -0.1181912745, -0.21145975, -0.24764033000000002, -0.22589654, -0.16507207000000002, -0.077823448, 0.03223550687, 0.1526018465, 0.254668755, 0.30690978, 0.294934695, 0.22860284, 0.1274041815, 0.012111546225, -0.0845713555, -0.122406015, -0.081451167, 0.021599597905, 0.15010700899999999, 0.27563323, 0.380939295, 0.44597651499999996, 0.45245456500000003, 0.404358915, 0.33008977, 0.26316969, 0.2271032, 0.22795288500000002, 0.25155046, 0.278283495, 0.299343655, 0.30018316500000003, 0.23870635]]","[[0.09839115550000001, 0.103976725, 0.0999674055, 0.13765864, 0.24477009500000002, 0.37379582499999997, 0.43612966999999997, 0.37519919, 0.21533639999999998, 0.036265293824999996, -0.1047825615, -0.199293395, -0.247710315, -0.245114175, -0.209037325, -0.17158753999999998, -0.13559257, -0.074527127, 0.023536873785000002, 0.1340978005, 0.21036585, 0.21524694, 0.16406300999999998, 0.129027945, 0.15430637, 0.18743807499999998, 0.15523768000000002, 0.0740578845, 0.021108836000000002, 0.023444286, 0.0378747895, 0.02248938515, -0.023723499496000004, -0.074103268, -0.0957792845, -0.0757293815, -0.0279695984008, 0.0422229521, 0.148352707, 0.26406852000000003], [0.271312235, 0.22789077500000002, 0.16328503000000003, 0.1013797205, 0.0452784035, -0.0151952756865, -0.0734541425, -0.11494989900000001, -0.143142565, -0.161878335, -0.14528280999999998, -0.06328365025, 0.072163338315, 0.21540258999999998, 0.327309185, 0.39105249999999997, 0.40678593, 0.376670095, 0.297294585, 0.185206005, 0.087202188, 0.031772517, -0.005012226109565, -0.048376783000000007, -0.06773059049999999, -0.016668549575, 0.09110200750000001, 0.19132482, 0.23966232999999998, 0.241273665, 0.22562791000000001, 0.212443425, 0.19471492, 0.156245525, 0.094110003, 0.00873869119, -0.09901974250000001, -0.207462765, -0.28044987, -0.29365174499999996], [0.051923064500000005, 0.134242377, 0.21278497999999998, 0.256596945, 0.24830455499999998, 0.18197775, 0.0798041005, -0.009258375829, -0.043203689499999996, -0.01167560482785, 0.07001613899999999, 0.18077131999999999, 0.30385422, 0.41512431499999997, 0.471397345, 0.4310809, 0.304287295, 0.171979775, 0.113178205, 0.117595135, 0.118037845, 0.082383778, 0.0339742175, 0.00622038265, 0.01080022885, 0.038209338499999995, 0.07533433299999999, 0.1314855425, 0.216504375, 0.29907796000000003, 0.33097115000000005, 0.304344465, 0.2579486, 0.22325936500000002, 0.18428213499999999, 0.118098478, 0.0462549885, 0.0013974916441, -0.01179992605, -0.0175896395]]","[[0.12795305499999998, 0.13643383, 0.16103129, 0.2169388, 0.30312098, 0.395498355, 0.45664216500000004, 0.438406995, 0.31879653, 0.1351031435, -0.047563360501999996, -0.18594483, -0.26420633, -0.287048745, -0.28637877, -0.29044498999999996, -0.27572676, -0.19874792, -0.086096219, -0.0381846475, -0.11612342999999999, -0.257069065, -0.32663840499999997, -0.24330818499999998, -0.04522907991615, 0.1508997975, 0.25905378500000004, 0.299304495, 0.34383043, 0.40632458499999996, 0.44129111000000004, 0.42539651, 0.37689816, 0.31875859500000003, 0.26710003, 0.238108245, 0.23495067, 0.24112805, 0.247862415, 0.26126219500000003], [0.29806313500000003, 0.208051125, 0.13187495, 0.0659284465, -0.001650484, -0.0732239635, -0.131980535, -0.163412655, -0.17686596000000002, -0.18451766500000003, -0.16949488, -0.1037282155, 0.009865606337500001, 0.1380076675, 0.246642415, 0.313738405, 0.333054655, 0.31101217, 0.25412267, 0.177050455, 0.1113454975, 0.074032294, 0.042893557500000006, -0.001613984759, -0.02954565, 0.00271189744, 0.0848141165, 0.160638015, 0.19313994, 0.18904220500000002, 0.17082718, 0.149213165, 0.11706881250000001, 0.0665711075, 0.00750601191, -0.0445782105, -0.0901470915, -0.14096431, -0.19785557, -0.239424855], [0.083161107, 0.10625657999999999, 0.096248501, 0.0621306725, 0.000525973095, -0.088805992, -0.185975675, -0.260496375, -0.290751585, -0.27086892500000004, -0.20905425, -0.12513842549999998, -0.0461818075, 0.001175000828, 0.007647351399999999, -0.0021084377570000003, 0.013070721317150001, 0.0640308675, 0.1166912115, 0.131192885, 0.102227825, 0.0657702035, 0.0671813165, 0.1186605365, 0.190896665, 0.25007834, 0.29948342, 0.36229441, 0.434811895, 0.49134524999999996, 0.52633728, 0.56040437, 0.60239998, 0.62970361, 0.606478845, 0.502586015, 0.321722885, 0.128915041, 0.00475963928, -0.029157879]]","[[-0.19652904, -0.168942615, -0.038020406859999994, 0.2722959165, 0.66483536, 0.924786355, 0.931296605, 0.7488253899999999, 0.55566945, 0.48546328000000005, 0.51229962, 0.526560865, 0.487593345, 0.440781015, 0.420184985, 0.41352641, 0.417677465, 0.46575007, 0.583898895, 0.74466018, 0.86019537, 0.8452103, 0.71830391, 0.601101295, 0.585287095, 0.63869635, 0.6694133600000001, 0.6375121, 0.57792631, 0.5392332249999999, 0.523222375, 0.48249865999999997, 0.38848185999999996, 0.314107755, 0.37186297, 0.44434689, 0.061026387, -1.12487712, -2.6455834, -3.4864756999999997], [0.137211945, 0.0788698845, 0.002455756007, -0.068730161, -0.113961171, -0.12288038999999999, -0.096123411, -0.0507380245, -0.015156431399999998, -0.0024950088019999998, 0.0073494274246500004, 0.0459057675, 0.1204336915, 0.20637944, 0.265069495, 0.26702652, 0.20761009000000002, 0.10606154500000001, -0.002751453812, -0.0752355005, -0.082157832, -0.040042246, 0.0007540213225, 0.011609961, 0.012809434500000001, 0.0385957585, 0.09227071649999999, 0.145538885, 0.16865576000000002, 0.151099145, 0.0998405535, 0.027900814361, -0.048283632, -0.103481624, -0.11563751, -0.0922689225, -0.066083919, -0.056765283, -0.0568854345, -0.0476154035], [0.05413110395, 0.1600309, 0.24092471499999998, 0.289926735, 0.30848465, 0.281702005, 0.19347690499999998, 0.058005871444999996, -0.074434058, -0.15167516, -0.15217442, -0.083001398, 0.03475600089, 0.16878841, 0.27443963, 0.31208575499999996, 0.29065406499999996, 0.27369727, 0.288620635, 0.272407785, 0.17226541, 0.02561397882, -0.0924071685, -0.13722187, -0.1019828725, -0.0027554328461, 0.125872397, 0.23873839, 0.28393929, 0.21537448999999997, 0.03068502633, -0.194921599, -0.34483339999999996, -0.367158925, -0.315140095, -0.256780125, -0.20012923000000002, -0.13629931, -0.105764315, -0.18553329999999998]]","[[-0.17025813499999998, -0.059915262350000005, 0.1549972775, 0.37019439, 0.463132805, 0.423605825, 0.32614831, 0.225828125, 0.140569535, 0.0711532675, 0.00027311901649999993, -0.083777908, -0.155432755, -0.17662422, -0.149435695, -0.111513929, -0.084630876, -0.05937556050000001, -0.02432120785, 0.013346709206500001, 0.035310928, 0.0441641675, 0.0806529645, 0.17888127999999998, 0.31540966000000004, 0.423593675, 0.46010547, 0.449738065, 0.44895221, 0.47484866, 0.496534955, 0.48353775499999996, 0.4380854, 0.3947737, 0.39346335000000005, 0.405369345, 0.29250808, -0.0565975858, -0.510686815, -0.75775687], [0.121985104, 0.072141409, 0.0139362049335, -0.042249041, -0.08573730149999999, -0.10825164000000001, -0.1069928, -0.092660153, -0.08628593600000001, -0.09499158149999999, -0.0965595575, -0.06337620249999999, 0.004387579725, 0.081833165, 0.14374218, 0.176915555, 0.17961616, 0.15575085, 0.1121517855, 0.066150526, 0.041225991000000003, 0.0392918275, 0.0335176375, 0.0086091968425, -0.00811873675, 0.0204015769045, 0.08854058249999999, 0.1510406, 0.17213539, 0.15477123, 0.12539409499999998, 0.103510592, 0.0888649865, 0.075175709, 0.064183532, 0.056226573, 0.041067668499999994, 0.01161958104, -0.02489734015, -0.049461596], [0.12234600999999999, 0.154078815, 0.16080662, 0.142182755, 0.1037153155, 0.0478261975, -0.022217246799849998, -0.094963265, -0.150073045, -0.17020978, -0.152897415, -0.1093064715, -0.0579475685, -0.01805680845, 0.001800169049, 0.0128158616, 0.040651479500000004, 0.10237900350000001, 0.1795757, 0.22387, 0.204543285, 0.1373348945, 0.060381897999999996, 0.0065548249895, 0.0038733231289999996, 0.07298613000000001, 0.20481213499999998, 0.35351806500000005, 0.45991530500000005, 0.48466763999999996, 0.42724340499999997, 0.32328446, 0.223469145, 0.16016291500000002, 0.133952315, 0.142713415, 0.194513565, 0.267374535, 0.30705266000000003, 0.27132916]]","[[-0.186803615, -0.184187905, -0.17089884000000002, -0.11067830799999999, 0.01007836777, 0.1646787815, 0.30387159, 0.37676513, 0.363163975, 0.28699955, 0.184478445, 0.083829758, 0.016008086625, 0.0038217821782, 0.0337170615, 0.072260915, 0.109608071, 0.154037025, 0.19619522, 0.21620313500000002, 0.2141592, 0.20455436999999999, 0.203054425, 0.23468054500000002, 0.30268013499999996, 0.356111325, 0.348471625, 0.30664346, 0.29008904, 0.306716735, 0.31641904, 0.29173854, 0.23476413000000002, 0.16215418, 0.100660236, 0.0712976065, 0.06768656499999999, 0.074477015, 0.094714096, 0.127247705], [0.218641115, 0.1218582975, 0.042170401, -0.001099028423, -0.0181610245, -0.030540886, -0.044451979499999995, -0.0582509125, -0.0769600315, -0.0940381995, -0.07581476849999999, 0.0051898052299999995, 0.1327668695, 0.265308605, 0.371574415, 0.43444145, 0.44496944499999996, 0.39972272, 0.301092855, 0.173179485, 0.059231179999999994, -0.020738758834, -0.0872430785, -0.1485501, -0.16119766500000002, -0.085253666, 0.044452268915, 0.145597195, 0.17322527000000001, 0.15105127, 0.13421966, 0.15386625499999998, 0.18394012, 0.16814523, 0.08391104249999999, -0.034706748495, -0.1323170745, -0.17649783, -0.1765871, -0.16417891999999998], [-0.151271245, -0.138801065, -0.0790509015, -0.010005301769999999, 0.0317514845, 0.0300567685, -0.0018524771214999999, -0.031934027000000004, -0.0318489235, 0.0045312711584999995, 0.06015384, 0.11273540300000001, 0.14982843499999998, 0.168508785, 0.172613585, 0.17316696499999998, 0.186259965, 0.22362751500000003, 0.272109515, 0.286549355, 0.23089867000000003, 0.1251357605, 0.030485718085000002, -0.0066357987695, 0.01530238295705, 0.070062445, 0.13663222, 0.210316055, 0.285054635, 0.34397924, 0.376129165, 0.39248987999999996, 0.41700290500000003, 0.45696942, 0.491169545, 0.49376377499999996, 0.464772725, 0.43063435, 0.4086819, 0.375575465]]","[[0.07794308949999999, 0.02096787734, -0.11374912549999999, -0.214310315, -0.1672504155, 0.008237086145, 0.18987288, 0.2705145, 0.22927925999999998, 0.12245268299999999, 0.017328586990000002, -0.05534805600000001, -0.089564553, -0.08688036800000001, -0.066164444, -0.054335257, -0.0491267155, -0.017902551241, 0.0505554055, 0.1076239565, 0.0738958355, -0.07971393508, -0.27321857, -0.36749255, -0.303555315, -0.15795793700000002, -0.037712540205, 0.03428313335, 0.1021222485, 0.18816068000000002, 0.268344745, 0.31462157, 0.31774973500000003, 0.28358489, 0.23840414, 0.227081075, 0.29013021, 0.436193495, 0.61493843, 0.726909905], [0.34647644499999997, 0.26223465, 0.15967389, 0.059457806499999995, -0.023765572439999997, -0.081932635, -0.10903607000000001, -0.11148408500000001, -0.11355389499999999, -0.12799963, -0.127833295, -0.0754099835, 0.024887494428, 0.1273895105, 0.19097955, 0.20904978, 0.20272706, 0.19280071499999998, 0.18297559, 0.17364890500000002, 0.170348735, 0.16371486999999998, 0.127778897, 0.06284830549999999, 0.016417177999999998, 0.0310592245, 0.08831117949999999, 0.13271288, 0.13423207, 0.10468816950000001, 0.070877184, 0.046365508, 0.021604613650000003, -0.013550898944500001, -0.047389596000000006, -0.0683891205, -0.090528596, -0.13204456, -0.18368889, -0.212489695], [-0.0504214615, -0.059446096, -0.071956602, -0.08907618599999999, -0.1109174265, -0.13902303, -0.17366777500000002, -0.21132336, -0.24314443, -0.25494807999999997, -0.23782218, -0.20084433499999998, -0.16651779, -0.15092245999999998, -0.14525682, -0.11442654199999999, -0.02574584643, 0.1093221395, 0.23337617000000002, 0.28919876, 0.25857547000000003, 0.170856545, 0.084075307, 0.0473511105, 0.0752409215, 0.153820535, 0.26478803, 0.391195175, 0.505395155, 0.583476335, 0.6328334600000001, 0.6769119849999999, 0.71680674, 0.7351121349999999, 0.72287633, 0.6781194100000001, 0.6042966599999999, 0.52758485, 0.482022545, 0.46572656]]","[[-0.22343756040983334, -0.10848435286403889, 0.06541124643788888, 0.11599102508888888, -0.050664806166666666, -0.30696670947666665, -0.4613580911111111, -0.44336257777777777, -0.30676063994444447, -0.13909039827777778, 0.004218843502833334, 0.10827491006444445, 0.17019394358244444, 0.1869928673961111, 0.17138441754833333, 0.15093009000000002, 0.1400666551661111, 0.12777796166666666, 0.09812548938666668, 0.05939404820111111, 0.05205335898388888, 0.11902801728333333, 0.25031568407666666, 0.36016371671999997, 0.37172427035, 0.31830406146833334, 0.2951213675077222, 0.32847982254444447, 0.3572066062940556, 0.3353311292523611, 0.28909804871944444, 0.2687908809684389, 0.2959862635751111, 0.35395195622777775, 0.3906569983888889, 0.334940925, 0.13058438031944444, -0.2234766173911111, -0.6196370246, -0.8561881858597777], [0.16648824227044443, 0.15998938033333332, 0.117647166467, 0.05591945811344444, 0.0006778464512222225, -0.03417255946072222, -0.048030483538000004, -0.051566414472222225, -0.06214797497777778, -0.08177625676694446, -0.08084945647888889, -0.023582920321055557, 0.09020403550222221, 0.2218094804777778, 0.3206269283333334, 0.34642912833333334, 0.289944944, 0.17968308529000002, 0.060772544675000005, -0.022567953734444444, -0.040124495776277774, -0.0027083224288888892, 0.0364905373925, 0.03949977566038889, 0.03183241781111111, 0.06505946105805555, 0.14392094960166665, 0.22037127583333332, 0.24988229222222225, 0.230526795, 0.19501321672222222, 0.1776476666097222, 0.1840644641666667, 0.19616648055555555, 0.1980338122598889, 0.17886787867666665, 0.12918590922894443, 0.05165930890616667, -0.03454786786888889, -0.09934212754622224], [0.15634508188466667, 0.19684950805555557, 0.1798663480877778, 0.14604298227777776, 0.14925911167166667, 0.17985059121944447, 0.1785162656111111, 0.12263184566572223, 0.06009378103722222, 0.04243035161111111, 0.06478650719066667, 0.09426940074533333, 0.13477968683155, 0.2088425217777778, 0.28755940466666663, 0.2903942548333333, 0.1753360171116667, 0.00868242782311111, -0.10203891972166666, -0.13153368633333332, -0.13545939074361113, -0.16291363519672225, -0.21470072792222222, -0.2482238669222222, -0.20344891205577778, -0.06338171743833333, 0.1020322921988889, 0.19688071410655555, 0.20686225052277776, 0.1816738883888889, 0.14516241375555555, 0.08898137532222222, 0.029309456798333335, 0.013357989155000001, 0.06232548306111111, 0.14678663747883333, 0.2155201585, 0.24299586957983332, 0.24154586385766666, 0.2136813642068333]]","[[-0.09219180427777778, -0.05317065361222222, 0.04398832024905555, 0.21834140520166667, 0.4201143930855556, 0.5667005730716667, 0.6082100572222222, 0.5472554211111111, 0.43622473777777776, 0.336600446425, 0.2619773507782778, 0.19333657855555553, 0.135841259125, 0.11398899907535556, 0.12408710244444444, 0.14295331377777779, 0.17410224994444445, 0.23509988775100002, 0.3027874706038889, 0.3144649437451667, 0.2363979592561111, 0.1134943774911111, 0.034754206611111116, 0.056025888767222226, 0.1543640616648722, 0.24805581505555555, 0.27615954031055556, 0.2577827669833333, 0.2551555707222222, 0.28947750398333333, 0.3225119420189444, 0.31027440507222226, 0.2492161992778222, 0.18362814938888888, 0.1697768016616111, 0.18873887794444447, 0.1044713646388, -0.19053375504333336, -0.5695133068333333, -0.7594512627777777], [0.23969823544444446, 0.18469610566666667, 0.11148971321561112, 0.037559042496888885, -0.025144590855555555, -0.07154878063183333, -0.09521757749444446, -0.0977625253441111, -0.09634902398888888, -0.09929592763588889, -0.08398937790281666, -0.022776901652222223, 0.07896109803666666, 0.18868942211111112, 0.27442346333333334, 0.3169571027777778, 0.31315471777777776, 0.27009524555555553, 0.19656578596977778, 0.11464134972222223, 0.05983434944444444, 0.042474220371238894, 0.03112320605699278, 0.0035198399019444443, -0.010696286983333334, 0.029363231404151667, 0.11265455737944445, 0.18573116722222222, 0.21036683611111112, 0.1887113148888889, 0.14561542172555555, 0.10316411791566667, 0.06706462301666667, 0.03400566687561111, 0.0015836456566666669, -0.03620949036722222, -0.0861003081111111, -0.14106099791666668, -0.18262884629444442, -0.19260070216666667], [-0.01516244831636111, 0.048529636388888894, 0.10822708705555556, 0.14397059091444445, 0.14623838284388888, 0.1107334555, 0.04613984028040555, -0.022691279320444444, -0.06848602938888888, -0.07747012146326111, -0.04896612138888889, 0.01177573088888889, 0.0926189413211111, 0.17139593047200002, 0.22319044910544444, 0.23798834909366667, 0.23679862104301666, 0.2576419521111111, 0.3053031677222222, 0.33537994, 0.3119691718027778, 0.25224555003555554, 0.20233468984277778, 0.19067255743, 0.20854403026011667, 0.2241106623504333, 0.21880117661238888, 0.21184233001277777, 0.22643263405555555, 0.24550035222222222, 0.2278517284811111, 0.16212872733333333, 0.08479595055555557, 0.03548973388888889, 0.01202137111111111, -0.012862505777777778, -0.04105326683333333, -0.044705629706211114, -0.019116796863333334, -0.020088656499999996]]","[[0.0705479030610925, 0.108064208875, 0.013493930399175, -0.09640321145, -0.0744369055, 0.085381985, 0.268001805, 0.37413206574925, 0.3797360685, 0.315097595, 0.229105995, 0.1511541525, 0.086367333795, 0.0511360585, 0.070497295, 0.13218772850000002, 0.1916518026725, 0.221288962, 0.236648459, 0.253960935, 0.24381072925000002, 0.1563970074725, -0.00995936323, -0.16902782425, -0.2237894, -0.18343765175, -0.1428783415, -0.16303566275, -0.21564145875000001, -0.24330077, -0.2253223265, -0.18091013525000002, -0.143704009, -0.146581246, -0.19402093, -0.220786857, -0.1232099380775, 0.13925759025, 0.46121098152050005, 0.65742185975], [0.2093256245, 0.2622584425, 0.242110345, 0.17008384275000002, 0.0960818339875, 0.052533475, 0.0335636425, 0.011779790000000002, -0.029595180000000002, -0.0786409662575, -0.10264623625000001, -0.0718961700475, 0.018417325, 0.14444677525, 0.264205899947, 0.3296784075, 0.3093351075, 0.209594755, 0.07129408200500001, -0.04444357, -0.0796483325, -0.021521689999999996, 0.07785415376749999, 0.1504969995, 0.18329382249999998, 0.2160754475, 0.2744300625, 0.33521820249999995, 0.3573242975, 0.3227915375, 0.24980057225, 0.1808642954925, 0.15201733825, 0.16594441, 0.1948204887, 0.20622237759499998, 0.18506956075000003, 0.1261414175, 0.022096033295, -0.11740720325], [0.06906312925, 0.10802421687449999, 0.11801974274999999, 0.11672036025, 0.11956951675, 0.11668013549999999, 0.08747955825, 0.027070138422499997, -0.0435715275, -0.0936018475, -0.1070595765, -0.08423439375, -0.02284976725, 0.07719679601625, 0.18107597900000003, 0.21850225675, 0.148345159705, 0.020888542500000003, -0.0707729875, -0.1055403625, -0.1392717065, -0.20954055329075, -0.28682333, -0.30711548456625, -0.225574395, -0.047283584999999996, 0.1751196410275, 0.36835562000000005, 0.47582772, 0.49140868750000005, 0.4587101875, 0.4295867025, 0.4310767375, 0.469704734, 0.5434014175, 0.6484230775000001, 0.767943075, 0.8471202, 0.8201211374999999, 0.65327600725]]","[[-0.12802825816055796, -0.05618945383207005, 0.04932510687247693, 0.13278759428502415, 0.1509210935951691, 0.1240645474326087, 0.09880543809178745, 0.09397063611222102, 0.10581952973188406, 0.12697362028140097, 0.14562086642657004, 0.15085118885652174, 0.1443240881938889, 0.13753160174846377, 0.13766117760555555, 0.1450172705772947, 0.16159323735317632, 0.18663675565985507, 0.20517717290893722, 0.19567272715055556, 0.15721501609347827, 0.12149630305051932, 0.12264438335599033, 0.15890489487487922, 0.1995441356586401, 0.22231677434734298, 0.22974669798620773, 0.2336312568272947, 0.23811727799620772, 0.23992104445030193, 0.23652751860364735, 0.22817054150680918, 0.21830054789257972, 0.2146111877463768, 0.21835979176108697, 0.19888858514975843, 0.08612728849347585, -0.16184047624323672, -0.45686392912051443, -0.6167012568315459], [0.20390615872386472, 0.1840708777173913, 0.13120434051417873, 0.06282767540666667, 0.0018946981703985514, -0.0391136076489372, -0.05790389925323671, -0.06338913165927536, -0.07277197955072463, -0.08898455403481885, -0.08505769793769806, -0.02953420564675121, 0.07595231784299517, 0.19731866746256038, 0.29317920071772463, 0.3314303275483092, 0.3025653017512077, 0.22289424232415458, 0.12118545880272948, 0.03423492390772947, -0.0018194113399275364, 0.014482343887978262, 0.03955216938249686, 0.03833422409231884, 0.03309751199033816, 0.06923709857052489, 0.14734979379613525, 0.2202903929589372, 0.24671583373188405, 0.22438068310386472, 0.18068209135772947, 0.14568307529266908, 0.12901490811231883, 0.12171976975268116, 0.11220156718545894, 0.08892395721214977, 0.042872377975144926, -0.02241707120021739, -0.09154256703253623, -0.14224564812516907], [0.07039198797535025, 0.1207766997855628, 0.14065189476884057, 0.14131725272487924, 0.14407319545241545, 0.14156003798671496, 0.10908694494196376, 0.04698330777044686, -0.009332046348550725, -0.027443619174847823, -0.007085863977487923, 0.03511948413444444, 0.09588856433811353, 0.17539021350202294, 0.2456837597704831, 0.2582318612834783, 0.1985383417679058, 0.11851780116705314, 0.07914450076111111, 0.07486267170289855, 0.05857750830833333, 0.011508586457221016, -0.0427882769910628, -0.06508084994004226, -0.027207478389417873, 0.06371472583134782, 0.16233450483457731, 0.22575205657362318, 0.25045356546884057, 0.24982471602657003, 0.2220118254289855, 0.1652113536545894, 0.10583844721908213, 0.08250397532342996, 0.10320316496618358, 0.14280480650045893, 0.17602165833333333, 0.19670708690157487, 0.20368061228014495, 0.16938065647036232]]"
