,experiment_id,num_time_steps_in_coordination_scale,fnirs_time_steps_in_coordination_scale,time_step_size,final_sync_proportion,sync_per_time_step,sync_proportion_per_time_step,s1_d1,s1_d2,s2_d1,s2_d3,s3_d1,s3_d3,s3_d4,s4_d2,s4_d4,s4_d5,s5_d3,s5_d4,s5_d6,s6_d4,s6_d6,s6_d7,s7_d5,s7_d7,s8_d6,s8_d7,left_hemisphere,right_hemisphere,medial,average,gsr_time_steps_in_coordination_scale,gsr
0,exp_2022_09_30_10,40,"[0, 1, 2, 3, 4, 5, 6, 7, 8, 9, 10, 11, 12, 13, 14, 15, 16, 17, 18, 19, 20, 21, 22, 23, 24, 25, 26, 27, 28, 29, 30, 31, 32, 33, 34, 35, 36, 37, 38, 39]",1.0,0.7727272727272727,"[True, False, True, True, True, True, True, True, True, True, False, False, False, True, True, True, True, True, True, True, True, False]","[0.045454545454545456, 0.045454545454545456, 0.09090909090909091, 0.13636363636363635, 0.18181818181818182, 0.22727272727272727, 0.2727272727272727, 0.3181818181818182, 0.36363636363636365, 0.4090909090909091, 0.4090909090909091, 0.4090909090909091, 0.4090909090909091, 0.45454545454545453, 0.5, 0.5454545454545454, 0.5909090909090909, 0.6363636363636364, 0.6818181818181818, 0.7272727272727273, 0.7727272727272727, 0.7727272727272727]","[[-0.32922205499999996, -0.21708503, -0.0534890967, 0.055428493, 0.041086990265, -0.060507206900000006, -0.15000734500000001, -0.18792204999999998, -0.247386065, -0.399451695, -0.56931373, -0.5993536850000001, -0.46114918000000005, -0.291615465, -0.210684395, -0.20319754, -0.1921125, -0.161374845, -0.170226355, -0.26397744, -0.39811529999999995, -0.45872914000000004, -0.364568755, -0.1682383395, -0.0559571565, -0.1944364225, -0.5247311100000001, -0.76073986, -0.690167295, -0.395896535, -0.07917501661, 0.2052013595, 0.50718147, 0.7904780549999999, 0.93575562, 0.89151813, 0.75285866, 0.6728838349999999, 0.703541205, 0.7455680250000001], [0.0240748235, 0.0566973545, 0.110207929, 0.1004825595, 0.022422580545, -0.0534818275, -0.050097638, 0.03461122925, 0.1074538155, 0.057692599162, -0.139380483, -0.40025336, -0.597620875, -0.6437745850000001, -0.53983329, -0.363057895, -0.20411795000000002, -0.1113628235, -0.08579553349999999, -0.1082993485, -0.157619205, -0.21529093, -0.26688933, -0.30073092, -0.314022, -0.318259295, -0.321021405, -0.311310185, -0.27986795999999997, -0.24473719500000002, -0.23976212, -0.283564025, -0.3643267, -0.43887607, -0.454740465, -0.39389394000000005, -0.28546244000000004, -0.17110188, -0.079224129, -0.0271391955], [-0.45600993, -0.44281039499999997, -0.34496213500000006, -0.19841692000000002, -0.031175362932500002, 0.13553194400000002, 0.271927115, 0.330671885, 0.26829647, 0.094041715795, -0.1068462855, -0.2191206, -0.18388960999999998, -0.047021703445499996, 0.08621309549999999, 0.1494152, 0.16023036499999999, 0.17108731500000002, 0.19947932999999998, 0.217560525, 0.19018197, 0.10823630100000001, -0.0044312363890000005, -0.1079330425, -0.17333225500000002, -0.19349815, -0.1753785, -0.13203473000000002, -0.0782805765, -0.0255515727, 0.0185027614859, 0.045296557, 0.0458065405, 0.016506896534, -0.03568197035, -0.089785173, -0.11924372, -0.11649804, -0.1010115675, -0.090587541]]","[[1.02638906, 1.0515295, 0.9155895150000001, 0.62614094, 0.30539811, 0.049730086629999996, -0.11175991700000001, -0.15600719500000002, -0.040140526041999997, 0.21196185199999998, 0.43681601000000003, 0.439401265, 0.145831177215, -0.33631843850000004, -0.7653185299999999, -0.9647415100000001, -0.93733486, -0.803774415, -0.6998237, -0.7166020500000001, -0.861851775, -1.03828845, -1.11020735, -1.035538185, -0.9099565049999999, -0.8617214099999999, -0.8811216749999999, -0.769651695, -0.37554392999999997, 0.1335802799, 0.37595916500000004, 0.126213262015, -0.42753495, -0.830382745, -0.8147153, -0.477296835, -0.02579582264, 0.446259555, 0.88671734, 1.21185055], [0.092160113, 0.065892587, 0.058445681, 0.008619756499999999, -0.0555555185, -0.070996225, -0.024130963255000002, 0.043946614999999994, 0.0638087415, 0.00031454177, -0.115372687, -0.243009175, -0.36326727, -0.426762265, -0.36441929, -0.192816961, -0.0299022799545, 0.030392404499999998, 0.00994048873, -0.0159049154, -0.025914179000000002, -0.060903601, -0.12527901, -0.155795915, -0.12471143, -0.0888269525, -0.1166045455, -0.183968205, -0.1914794, -0.110743408, -0.028475765, -0.033117389500000004, -0.114175904, -0.1832881, -0.16796265000000002, -0.0912235855, -0.022703821250499998, 0.025531591750000002, 0.071160323, 0.09138737799999999], [-0.290503015, -0.26843245499999996, -0.23479303999999998, -0.18312543, -0.1108999175, -0.033245013715150006, 0.0242709759, 0.0459911105, 0.031981118, -0.0040133856345, -0.036910249, -0.044158506, -0.0200220932675, 0.02376658961, 0.062981376, 0.07617587, 0.0701837875, 0.0762661275, 0.104312249, 0.12563686000000002, 0.1100718055, 0.056769569000000006, -0.0086661448055, -0.053391336000000005, -0.0628422455, -0.050044001, -0.031228962500000002, -0.0060398620505, 0.028833708, 0.0665894095, 0.09467370150000001, 0.095145225, 0.051215049, -0.031961611848999996, -0.1246910235, -0.19196808499999998, -0.208621775, -0.17391755499999997, -0.12054299800000001, -0.08265557949999999]]","[[-0.37628601500000003, -0.303036845, -0.0826757127985, 0.19327119450000002, 0.37671385, 0.41498523, 0.37786523000000005, 0.30615038, 0.11145050504500001, -0.2700478725, -0.6545759099999999, -0.721084255, -0.394297815, 0.051304065807, 0.313647795, 0.34913728499999996, 0.30735815, 0.301048675, 0.30972024000000004, 0.27084489, 0.1979693, 0.181944525, 0.28525385, 0.43716522500000005, 0.435143245, 0.114544955795, -0.415785085, -0.7933118849999999, -0.797892585, -0.596035915, -0.423149175, -0.2089946185, 0.228251851185, 0.7439988049999999, 0.96367531, 0.756505005, 0.37687098999999996, 0.149048175, 0.16501455, 0.26208961], [0.293183925, 0.25581163, 0.16962594, 0.01389306636, -0.154957988, -0.23867683499999998, -0.182815755, -0.04097954944, 0.045339851, -0.043558970451999995, -0.29829882, -0.588188485, -0.766776165, -0.7640926650000001, -0.60939762, -0.39672588500000006, -0.21869444500000002, -0.111475953, -0.059170399500000005, -0.042115387000000004, -0.0611009235, -0.12032935350000001, -0.20982105, -0.30553937000000003, -0.380630685, -0.420371995, -0.422325055, -0.385836155, -0.323382255, -0.281119825, -0.31391764, -0.42692096999999996, -0.560241215, -0.63363293, -0.60010914, -0.4715994, -0.305715525, -0.16219335000000001, -0.07046371950000001, -0.034866853], [-0.47450891, -0.510301965, -0.44592355, -0.297902825, -0.1055953725, 0.08358392706500001, 0.22440576, 0.275359795, 0.213220895, 0.06407783253, -0.0933002935, -0.173684195, -0.142604246, -0.0406955109995, 0.050305182999999996, 0.077990962, 0.0545097685, 0.022194322500000002, 0.002958441069, -0.0082919579, -0.0207072145, -0.037295194999999996, -0.061252941, -0.102015487, -0.16916910999999998, -0.254811995, -0.32759347499999997, -0.35199811, -0.312493915, -0.220779475, -0.108342815, -0.011348945184999999, 0.0488652045, 0.073095811, 0.0732134495, 0.061870586000000005, 0.046976405000000006, 0.02440518485, -0.015549473757500001, -0.0638222795]]","[[-0.028185659699999997, -0.13441241699999998, -0.210412955, -0.225384995, -0.207726315, -0.211541235, -0.253271885, -0.309263805, -0.363610825, -0.41854723, -0.44810729000000005, -0.386486885, -0.214175785, -0.016381430909500002, 0.098946039, 0.10358354500000001, 0.0450645356, -0.0237332044765, -0.08002292450000001, -0.11319606500000001, -0.1036432915, -0.031819393531500005, 0.09225298800000001, 0.219078745, 0.295289415, 0.30640374000000004, 0.27203458999999997, 0.21739487000000002, 0.16795960999999998, 0.1405315, 0.130425985, 0.13832647, 0.20134950499999998, 0.35151111999999995, 0.539268525, 0.6511175450000001, 0.6200936149999999, 0.49361837000000003, 0.377416665, 0.316815885], [-0.2725446, -0.236004835, -0.220899045, -0.31939811500000004, -0.48946720499999996, -0.593690085, -0.533643595, -0.35381155, -0.20797879000000002, -0.21106329, -0.33116192499999997, -0.43638323999999995, -0.42703004, -0.30663081999999997, -0.149250991, -0.0341577687, 0.0007125812465, -0.01969856495, -0.0338388615, -0.013319374224000001, 0.0076933516, -0.0134910765915, -0.073185559, -0.13297482, -0.16039251, -0.151508475, -0.12516668, -0.093243614, -0.047562179999999996, 0.0095046492365, 0.044976870499999995, 0.034055515, -0.0015098788175, -0.016407740349999998, 0.01968252675, 0.1125512395, 0.245870815, 0.38772370500000003, 0.49513904, 0.50838923], [-0.645741315, -0.653597475, -0.51360901, -0.28156284, -0.03280002512, 0.1625780325, 0.263166045, 0.26552600000000004, 0.197371585, 0.103210181, 0.020974089411999998, -0.038047713500000004, -0.0831546675, -0.12714836, -0.175877845, -0.21636792, -0.217431765, -0.16031472000000002, -0.0662808885, 0.015967176091, 0.044266499, 0.0067139054255, -0.0752286505, -0.168966275, -0.25779888, -0.33560197, -0.38362662999999997, -0.37504786, -0.30416293499999997, -0.199541835, -0.107787279, -0.062504473, -0.059707488499999996, -0.0627613305, -0.03540664795, 0.03112868173, 0.1125232755, 0.158126055, 0.121824933, 0.014400066485]]","[[-0.27154521, -0.274487315, -0.09240569988000001, 0.1897718425, 0.41068406500000004, 0.49821105000000004, 0.496020405, 0.41852224, 0.176107508175, -0.2575357015, -0.652811115, -0.67495992, -0.268529567115, 0.2626267535, 0.58700838, 0.6372242, 0.55919435, 0.48488013, 0.41877823999999997, 0.309546245, 0.173701875, 0.11676549, 0.21763033499999998, 0.383846165, 0.351510765, -0.08124331728999999, -0.7580838900000001, -1.20761685, -1.14422083, -0.776105395, -0.43846150500000003, -0.136757638855, 0.292724467, 0.7406646299999999, 0.8851524550000001, 0.623153125, 0.22035185999999998, 0.0179139311, 0.10217802100000001, 0.25691458], [0.249247705, 0.11676026049999999, 0.031871147999999995, 0.0130685885, 0.058934411000000006, 0.1226604315, 0.140952425, 0.1104965505, 0.058894447, -0.03470765412, -0.221919855, -0.48797107500000003, -0.7189314849999999, -0.7920828299999999, -0.6786816349999999, -0.45822888999999994, -0.2391153, -0.0911510815, -0.045245381, -0.098628577, -0.19661251, -0.26688119, -0.29398073, -0.33602799, -0.429045245, -0.5091583700000001, -0.49636821500000006, -0.41251542, -0.356945215, -0.401248145, -0.53404354, -0.673859305, -0.7380684200000001, -0.7120441649999999, -0.6348871150000001, -0.53692521, -0.43148439000000005, -0.33646061000000005, -0.25030248499999996, -0.16330105499999997], [-0.7411157850000001, -0.81274901, -0.716997555, -0.504149935, -0.2208028515, 0.096360117405, 0.40043796, 0.60824863, 0.620909305, 0.40632878499999997, 0.060413129695, -0.23946941500000002, -0.35767952000000003, -0.29356693, -0.1572813075, -0.051676259499999995, 0.013754028094999999, 0.08976408949999999, 0.19212865499999998, 0.268767325, 0.25391765499999996, 0.1324891755, -0.046964551830000006, -0.212314005, -0.31657482, -0.349548305, -0.32368712, -0.25960665, -0.17199412, -0.0601414760647, 0.0778640595, 0.22281600999999998, 0.338401365, 0.38571944, 0.336319015, 0.20360191, 0.047336996669499996, -0.079384973, -0.16015583, -0.18419686999999998]]","[[-0.41495269999999995, -0.532503485, -0.51894311, -0.349321775, -0.1144383562, 0.07354969587, 0.163708745, 0.1389710195, -0.033898067815, -0.34777088999999994, -0.656574, -0.7349153300000001, -0.49087741, -0.07604563020999999, 0.250320885, 0.346072085, 0.25124794500000003, 0.08411260770000001, -0.0644554412821, -0.15077844499999998, -0.149138605, -0.03664601806, 0.17898801250000002, 0.40534929, 0.46653756, 0.23863840849999998, -0.16977619234, -0.449280945, -0.40569343, -0.1586720965, 0.06722421883, 0.22698529, 0.41618547, 0.634598, 0.7435703499999999, 0.6487358999999999, 0.42571240000000005, 0.24181155499999998, 0.197741095, 0.24542662499999998], [-0.044350551075, -0.0949424155, -0.0688773265, -0.028835497, 0.0028090927249999997, 0.037143161, 0.0767241195, 0.08909525800000001, 0.025131067895, -0.12645531399999999, -0.31493321, -0.463425905, -0.513937455, -0.451489695, -0.31118257499999996, -0.16322583000000002, -0.0692908995, -0.0415099595, -0.052612730499999996, -0.07764519, -0.10696533600000001, -0.13416053, -0.15512523, -0.171533615, -0.188174415, -0.208779845, -0.22769514999999999, -0.23060809, -0.213756575, -0.19376219500000003, -0.192557245, -0.22124052, -0.27462996, -0.32965938, -0.35541229, -0.33437687, -0.268157555, -0.16267283, -0.033085062043, 0.0705917585], [-0.95503412, -0.9315809500000001, -0.7682762, -0.522668985, -0.23766410799999999, 0.05132372073, 0.307746, 0.48741866500000003, 0.542984515, 0.45138883, 0.24479729500000003, 0.00982690795, -0.157938652, -0.220348915, -0.215724945, -0.19619274, -0.160456625, -0.07143387505, 0.071708624725, 0.202674835, 0.23325698, 0.131041205, -0.04769394818, -0.209267575, -0.30134775, -0.330292285, -0.319603115, -0.27800255, -0.20451594, -0.105192626, -0.0009129987149999999, 0.081284591, 0.12692617, 0.13835722, 0.120857995, 0.075180338, 0.0024778795000000003, -0.09262941749999999, -0.19660519, -0.27486384]]","[[-0.054879626238999994, -0.150941445, -0.132595085, 0.01884240649, 0.21990348999999998, 0.38165930000000003, 0.462672635, 0.419067275, 0.17355893480999998, -0.2743464665, -0.7141533800000001, -0.8358396349999999, -0.54377453, -0.07260047958999999, 0.2473303, 0.277056505, 0.10678951269, -0.10497273315, -0.26621823, -0.35102871999999996, -0.33083118499999997, -0.15425068050000001, 0.182152699815, 0.530928375, 0.6005371199999999, 0.1896892669, -0.51265044, -1.00693492, -1.01518822, -0.741425355, -0.47168183999999996, -0.17724111175, 0.271730929, 0.70482038, 0.7823628100000001, 0.44893840500000004, 0.033472136199999995, -0.1141200035, 0.050837607905, 0.280005935], [0.02984468978615, -0.01184796975, 0.019258250002, 0.07365673099999999, 0.12769522, 0.18256419000000002, 0.227628745, 0.234990205, 0.191143805, 0.1018692285, -0.034003081875, -0.19566514000000002, -0.31058646, -0.32045844, -0.249996285, -0.15921715, -0.071651096, 0.002576141837355, 0.02098381135, -0.040448565719999996, -0.1223430845, -0.143557605, -0.10387338249999999, -0.07433532, -0.0933095335, -0.123647175, -0.12373059, -0.114116695, -0.13467594500000002, -0.178978215, -0.217412985, -0.24930722, -0.29981087500000003, -0.366030545, -0.40995037500000003, -0.4144853, -0.38960508, -0.33339447, -0.231032015, -0.104422207], [-0.9970420950000001, -0.99036108, -0.8634554799999999, -0.656446895, -0.391223035, -0.08045132723, 0.2501132545, 0.537049255, 0.684887985, 0.62400769, 0.37569624500000004, 0.05856356346, -0.180532963, -0.26613032000000003, -0.23409189000000002, -0.166730415, -0.0991849075, -0.00589116155, 0.13319197300000002, 0.27532325, 0.3268227, 0.21878770500000003, -0.01767987585, -0.261810495, -0.39686667999999997, -0.38647879500000004, -0.273580895, -0.131703803, -0.013531165920000001, 0.074086949, 0.150321515, 0.22169626999999997, 0.27117816, 0.27218125, 0.20104408499999998, 0.053747656325, -0.1360301355, -0.30567509000000004, -0.39535787499999997, -0.37198256999999996]]","[[-0.320032795, -0.11483790201499999, 0.21419591799999999, 0.47672076500000005, 0.596586735, 0.67942454, 0.795710535, 0.761041235, 0.2788472806, -0.57431056, -1.16540443, -0.943776045, -0.142606861495, 0.5302768600000001, 0.70288921, 0.545325645, 0.38155428, 0.34576924, 0.36418375, 0.321495545, 0.21953451000000002, 0.21916129, 0.482992615, 0.8776575950000001, 0.87150487, -0.011718414629999998, -1.44038257, -2.3039821000000003, -1.9380491499999999, -0.8789895799999999, -0.014613023515, 0.44339985, 0.77757434, 1.04665713, 0.9844672, 0.45506306, -0.18931821124999998, -0.33424534, 0.203965519545, 0.869663555], [-0.032416077, -0.0219140448, 0.007843246686499999, 0.024425694999999997, 0.0182083815, 0.0055611943, 0.007213409699999999, 0.0267365525, 0.041632997500000005, 0.020881095831, -0.042957145, -0.127625236, -0.202444385, -0.24039544, -0.22356809, -0.15828026, -0.0760420085, -0.008006275726649999, 0.032839676, 0.0442922905, 0.02690538, -0.01150816978765, -0.054809751000000004, -0.08395638350000001, -0.0845060775, -0.0588758335, -0.027650167, -0.01009262065, -0.0119171231, -0.034922968, -0.07927873499999999, -0.134121885, -0.18322411, -0.213540815, -0.213754155, -0.17930012, -0.120833119, -0.0574176385, -0.0051252892655, 0.022434664], [-0.20405547999999998, -0.21050859, -0.20541837000000002, -0.177414775, -0.123160422, -0.053434461999999995, 0.011756384865, 0.053143557, 0.059732821, 0.0360986465, 0.0007820105715000001, -0.0259357825, -0.030895455, -0.01236877184105, 0.0153370232, 0.031887818, 0.0376364285, 0.055484666, 0.093089241, 0.12508803000000002, 0.12102121, 0.07578465300000001, 0.013385389963500001, -0.0334467065, -0.050610517, -0.0471488265, -0.03310411, -0.008453072952, 0.02512679885, 0.060647649, 0.09231135, 0.110105505, 0.0987742875, 0.0531824045, -0.0162276472063, -0.0885696205, -0.13613102, -0.14078921, -0.113743177, -0.079983759]]","[[0.084721859, 0.024780783999999997, 0.045531965, 0.16023704500000002, 0.31690665, 0.464892965, 0.5739978450000001, 0.586316575, 0.40573413, 0.0025006153025, -0.46728133499999996, -0.725795545, -0.62131755, -0.287417165, -0.004488697514500001, 0.0696912095, -0.025748478441499998, -0.181200635, -0.32956552, -0.446008115, -0.49344393, -0.404493595, -0.14731295798, 0.1631623955, 0.25454684, -0.08235230699000001, -0.6830250250000001, -1.0537078, -0.903440075, -0.467798495, -0.1302811995, 0.059578057095, 0.289026825, 0.572483265, 0.7050217999999999, 0.57856849, 0.34398448000000004, 0.22146539499999998, 0.2717435, 0.37478279000000003], [0.154961995, 0.0969034655, 0.11951752, 0.15091426, 0.15726155, 0.156812025, 0.16770811500000002, 0.17652338, 0.16714536, 0.142289845, 0.102231456, 0.03280208884, -0.072247533, -0.19423870499999998, -0.29552628999999997, -0.33745867500000004, -0.307438145, -0.22888350500000001, -0.153067205, -0.12769834, -0.15401592, -0.207060905, -0.266713405, -0.31162347, -0.328265515, -0.320493055, -0.291330365, -0.2470685, -0.2063792, -0.18130359, -0.18655242000000002, -0.246905975, -0.35148670000000004, -0.44088148, -0.47276234, -0.46036174, -0.43919049, -0.41773245000000003, -0.3702031, -0.27812878], [-0.58591425, -0.665918515, -0.6679129450000001, -0.587908685, -0.439713205, -0.24504225000000002, -0.021428275828499998, 0.2008508845, 0.363412045, 0.41336619999999996, 0.34370562, 0.19708498, 0.04414055829499999, -0.056203993, -0.09218304050000001, -0.08801921350000001, -0.054359647500000004, 0.026261571533999998, 0.1559291385, 0.287732625, 0.34849628000000005, 0.292433235, 0.1417383725, -0.026573274865, -0.145075384, -0.193003535, -0.181119175, -0.1309559875, -0.063090003, 0.009807301175, 0.079792269, 0.133715215, 0.154761185, 0.128355525, 0.048568742013500005, -0.06307607445, -0.15926728499999998, -0.20334347, -0.193263525, -0.14715909500000002]]","[[-0.943854915, -0.6890866800000001, -0.1565192107845, 0.409392385, 0.78493461, 0.94667946, 0.9620334800000001, 0.8059169300000001, 0.41668668, -0.056406373705000006, -0.258742135, -0.034055280875, 0.39177004, 0.7112214899999999, 0.806477165, 0.748784455, 0.661989035, 0.61256718, 0.588137195, 0.536750015, 0.445085555, 0.41102981499999997, 0.57951569, 0.90832439, 1.02573377, 0.49677560434999996, -0.61252391965, -1.5927517, -1.8195077, -1.39754875, -0.83921537, -0.433053105, -0.12095209280800001, 0.203404001, 0.43280053, 0.308977858, -0.19521548144499998, -0.65508683, -0.62420763, -0.20667430193000003], [0.024059742000000002, 0.0265451975, 0.0344105065, 0.0253407995, -0.0011116158503, -0.023367598, -0.019134152550000002, 0.011810396405999998, 0.0402812065, 0.02818334995, -0.03887723046, -0.141162226, -0.23942981, -0.294205025, -0.28508032499999997, -0.22320189, -0.140636985, -0.0662106455, -0.0162981097, 0.00105057917265, -0.011224411949999999, -0.037928909000000004, -0.062015915000000005, -0.0725114835, -0.067024236, -0.05528818, -0.0530884985, -0.067189445, -0.09277510700000001, -0.12467719000000001, -0.162318815, -0.206164065, -0.254828135, -0.29835678, -0.31432562999999997, -0.284549355, -0.21541680500000002, -0.130572832, -0.0519131855, 0.001380234948], [-0.18192205, -0.1895919, -0.20267683000000003, -0.199687545, -0.172810325, -0.13657534, -0.108530917, -0.088353047, -0.0668151455, -0.040993446999999995, -0.01642920435, -0.0033864677500000002, -0.00313549615, 0.0003518770675, 0.016174225150000002, 0.030117282, 0.035348957, 0.050145606, 0.0817542425, 0.109011438, 0.11125178, 0.08856322999999999, 0.0564428445, 0.031808243, 0.017713766, 0.00477405638, -0.0054306912, 0.0024830857115, 0.030410079, 0.062253246000000005, 0.08448341949999999, 0.08525493499999999, 0.053800784500000004, -0.0022590874699999998, -0.0620464795, -0.10805288900000001, -0.12877334, -0.12437841000000001, -0.112999485, -0.10641277]]","[[-0.45050736, -0.634210305, -0.802592745, -0.886835255, -0.8930843350000001, -0.9088785149999999, -1.001342615, -1.1332897, -1.19405865, -1.1161406, -0.95431842, -0.81787168, -0.74673387, -0.715601485, -0.715952315, -0.7628795599999999, -0.852004775, -0.945855045, -0.989544965, -0.940535295, -0.79401071, -0.57956015, -0.34563448999999996, -0.145075339, 0.012020785765, 0.19487898, 0.48206898000000004, 0.8457081949999999, 1.1628022, 1.33073365, 1.31126915, 1.1075604, 0.816152505, 0.6624421049999999, 0.8106478250000001, 1.15345012, 1.408013, 1.4015767, 1.1921362, 0.967110145], [-0.0795044805, -0.1386764, -0.113875764, -0.084539066, -0.070161793, -0.041631797500000005, 0.01814650134, 0.077216822, 0.0711997525, -0.03265491548, -0.18992432999999997, -0.3165227, -0.35908955, -0.319783215, -0.23780480999999998, -0.16273295499999998, -0.12495860499999999, -0.11365862, -0.0940768855, -0.052381737, -0.01107676430815, 0.0012791967551, -0.0180551714, -0.0477350135, -0.06772876, -0.0765992745, -0.08142026, -0.0783101165, -0.060049913999999996, -0.0421143395, -0.056695938, -0.11121998899999999, -0.16840853, -0.178891025, -0.1269450715, -0.040041637229999996, 0.041579508599999995, 0.1040525665, 0.163958435, 0.22627332], [-0.62210363, -0.49281073, -0.30308111, -0.1166470245, 0.0215476351545, 0.0902687675, 0.097888453, 0.074703149, 0.0521755, 0.043826242, 0.032659861, -0.015608440234000001, -0.106450426, -0.20051276999999998, -0.252306965, -0.24171815500000002, -0.17507161499999999, -0.08218047, -0.005959868270500001, 0.0241049895, 0.008652050796500001, -0.030007665750000002, -0.06858861649999999, -0.1054403295, -0.16454975000000002, -0.25649697, -0.340394435, -0.350030895, -0.26000538500000003, -0.11735313250000001, -0.008229718263, 0.009139780965999999, -0.049883263500000004, -0.1096292855, -0.0957162945, 0.007540017234999999, 0.142747649, 0.20977308, 0.137274442, -0.036820127985]]","[[-0.24538488, -0.31009407, -0.303403675, -0.217343425, -0.120255847, -0.071548563, -0.072734066, -0.1279562525, -0.294620845, -0.59670595, -0.901703605, -0.9913998150000001, -0.78975594, -0.45277321, -0.205887815, -0.13858881, -0.19607951, -0.30046979, -0.41285719, -0.503465595, -0.51794506, -0.39612010499999994, -0.13417450793, 0.146240555, 0.21367773, -0.08141784848, -0.566653355, -0.82812192, -0.667785105, -0.30816904, -0.027447153250000002, 0.194031808, 0.515746875, 0.88992328, 1.08734835, 1.0060624, 0.7973040299999999, 0.67212474, 0.68713164, 0.73614346], [0.01732074385, -0.131616427, -0.157984165, -0.11147623, -0.01727935075, 0.12384706350000001, 0.287475845, 0.40017321, 0.38420199, 0.22941403999999999, 0.006541838055, -0.19042880499999998, -0.30389103500000003, -0.32060441500000003, -0.25421769, -0.14610025699999998, -0.052512220000000005, -0.0050295931905, 0.0018744945812050001, -0.0177873424, -0.061254435999999995, -0.123958478, -0.182256955, -0.200713945, -0.164196275, -0.10047895750000001, -0.0574526925, -0.058490648, -0.0921565395, -0.141054345, -0.203811095, -0.2818256, -0.360407455, -0.40829801000000004, -0.393994425, -0.312694045, -0.19162647, -0.06549129525, 0.037874669855, 0.0897990515], [-0.86867071, -0.84344016, -0.748092715, -0.59879561, -0.394293355, -0.156687364, 0.052243429502, 0.166993985, 0.170199785, 0.1064774375, 0.043274554, 0.023657058499999998, 0.0504112765, 0.0885036835, 0.08052623949999999, -0.003966171965, -0.12024498550000001, -0.172044405, -0.095240067, 0.08159472012, 0.24936926499999998, 0.29801409, 0.202907885, 0.037571806395, -0.09804418849999999, -0.150231735, -0.121393476, -0.0451414325, 0.032896420203500004, 0.073607985, 0.061177379500000004, 0.011591684837, -0.034170537, -0.041010082499999996, -0.012584226891000002, 0.0159899495, 0.012087350164499999, -0.040999539450000004, -0.138687731, -0.23725992]]","[[-0.215859145, -0.31584786000000004, -0.46265431, -0.6363981400000001, -0.811342875, -0.980477945, -1.1277818000000002, -1.2074541, -1.17506435, -1.0393530149999999, -0.871889585, -0.74978126, -0.702263105, -0.7135650699999999, -0.74822948, -0.77289664, -0.77086415, -0.74754539, -0.7188824549999999, -0.6961918199999999, -0.6742966850000001, -0.617869245, -0.487903485, -0.305259345, -0.1439900935, -0.04187175505, 0.054998949175, 0.241620235, 0.5415230050000001, 0.84136125, 0.96629176, 0.850035295, 0.638469025, 0.58300241, 0.777076965, 1.0576490699999999, 1.2131552, 1.19612815, 1.0830779, 0.974713345], [-0.265153605, -0.289872595, -0.30146441500000004, -0.37782432, -0.46933990000000003, -0.46205853500000005, -0.31369675999999996, -0.10937569850000001, 0.016065594699999998, -0.001284787325, -0.114437058, -0.22853141999999999, -0.28292140499999996, -0.27111268, -0.211528435, -0.13517544, -0.0814788575, -0.064699538, -0.0583956935, -0.0434651185, -0.041867644, -0.0735270465, -0.11660336300000002, -0.131548405, -0.1000872505, -0.0418584065, -0.0021528297025, -0.004064810426, -0.021277645999999997, -0.023518465000000002, -0.024069109499999998, -0.0459296995, -0.0711033345, -0.0580784795, 0.020760324610000002, 0.17017641749999998, 0.36726819, 0.562179205, 0.6920075450000001, 0.6917595249999999], [-0.765582405, -0.69478265, -0.52814392, -0.303241535, -0.06264427052, 0.128888569, 0.20412742, 0.1452024065, 0.0169264759805, -0.0681645545, -0.0405888112985, 0.072458121, 0.18556093, 0.2201881, 0.1401014085, -0.025570116060000002, -0.18265862500000002, -0.227980785, -0.126172894, 0.06045092785199999, 0.207517545, 0.20907773500000001, 0.058135281435, -0.14654468850000002, -0.28209792499999997, -0.284136285, -0.165989376, 0.00405958844, 0.137008637, 0.16231829, 0.0615782164455, -0.1143781865, -0.260769595, -0.281583305, -0.16112199449999998, 0.0280783950445, 0.17788462500000002, 0.195076295, 0.047220355828, -0.18838803250000002]]","[[-0.1378764035, -0.196939685, -0.138624675, 0.027868757825, 0.2153479, 0.35333635999999996, 0.42094646500000005, 0.37239957500000004, 0.1049927381, -0.395919395, -0.89151708, -1.023680715, -0.6728992049999999, -0.08651128804500001, 0.37111324500000004, 0.52906044, 0.452807445, 0.28189709, 0.10592003500000001, -0.03220857402, -0.08227691849999999, 0.024404044575000002, 0.30478363999999997, 0.6124552, 0.63314793, 0.13680355862, -0.67220495, -1.22457495, -1.1924751, -0.805856715, -0.41096857999999997, -0.0122594991949, 0.516029325, 1.00238658, 1.098808935, 0.7376078549999999, 0.24883579099999997, 0.009063422437500001, 0.09409405409999999, 0.27295436500000003], [0.089770411, 0.033030422000000004, 0.011151083450000002, 0.0046700677, 0.0133012162, 0.04959498799999999, 0.1139037825, 0.1752054, 0.18131008, 0.10247693249999999, -0.0408284090105, -0.19725441, -0.31477378, -0.356312055, -0.31454482, -0.21705336, -0.102096966, 0.006010197280000001, 0.0894456795, 0.126822975, 0.1104642935, 0.059057555500000004, 0.0048349759105, -0.0242329995, -0.019659299050000002, 0.0028112557039999997, 0.020698086999999997, 0.020876326, -0.00371082527045, -0.0542140735, -0.11720725950000001, -0.17492437500000002, -0.22643805, -0.27986095, -0.3297795, -0.36121014500000004, -0.364192515, -0.332358935, -0.266568095, -0.18749647500000002], [-0.823237115, -0.869464215, -0.78437676, -0.604298055, -0.365496895, -0.099261423045, 0.16298980600000001, 0.37952586, 0.496783285, 0.47325351, 0.315606165, 0.09219210434000001, -0.0995961425, -0.197717495, -0.21046303000000002, -0.18011707000000002, -0.12396681799999999, -0.030755506765, 0.093639807, 0.199961875, 0.220115935, 0.1210178035, -0.057841980045000005, -0.22590420000000003, -0.30786524, -0.287804905, -0.200778745, -0.098725571, -0.01811653304, 0.0361589205, 0.0791151975, 0.12170180500000001, 0.161359675, 0.183771485, 0.16879048000000002, 0.10837737750000001, 0.020647916045, -0.0634066605, -0.11959083899999999, -0.13009707]]","[[-0.21462923, -0.246092855, -0.20586226, -0.127541638, -0.075605377, -0.075788432, -0.1001973485, -0.151424, -0.31528201, -0.6400130249999999, -0.9594245650000001, -0.9765855999999999, -0.604750495, -0.09682959476000001, 0.23521918, 0.31007511, 0.24534690999999997, 0.16048503, 0.08514244250000001, 0.01394998983, -0.0204897087, 0.045922445498, 0.234932205, 0.446266495, 0.45700362, 0.090935519725, -0.526302785, -0.97644221, -0.974808425, -0.66235742, -0.32022879000000004, 0.016503197759999998, 0.451102565, 0.87831669, 1.025262135, 0.8000667850000001, 0.42912329499999996, 0.22998184500000002, 0.317228245, 0.51740013], [-0.011470092707499999, -0.046575141, -0.094049277, -0.17759874, -0.24867826999999998, -0.235021895, -0.12131758599999999, 0.019602217365, 0.081149661, 0.014720604980000001, -0.1386084725, -0.29796621, -0.39974276000000003, -0.41464597500000006, -0.349359095, -0.24493441000000002, -0.147641025, -0.0730679705, -0.016396636149999998, 0.012076325450000001, -0.006794380905, -0.0661690105, -0.1289913, -0.15643294, -0.13822812, -0.1020045255, -0.08722339200000001, -0.106467333, -0.141324135, -0.17158812999999998, -0.191817025, -0.20485890999999998, -0.21684561500000002, -0.229618495, -0.22887474000000002, -0.196324995, -0.1324698955, -0.053376461, 0.017289271316999998, 0.0453402365], [-0.986660025, -0.95743835, -0.801659875, -0.5565799650000001, -0.2500828255, 0.07475396314, 0.343756185, 0.471620745, 0.416015345, 0.223616695, 0.009380103465000001, -0.1205582305, -0.129610695, -0.0591882705, 0.00984645596, 0.024335680499999998, 0.0012592051285, -0.0017737332954500002, 0.045986017, 0.1155614635, 0.14266567500000002, 0.083722477, -0.039932652355, -0.154202945, -0.19304726500000002, -0.142541471, -0.034375429285, 0.08408523799999999, 0.174903595, 0.22116126000000003, 0.223256245, 0.192567755, 0.152046425, 0.12856304, 0.13135143, 0.143347375, 0.136137245, 0.0846299015, -0.020156803449999997, -0.1498502505]]","[[-0.057494109499999994, 0.019999427611, 0.183367404, 0.31834722, 0.30736035, 0.1554611745, -0.008466043575, -0.11199281600000001, -0.286157855, -0.69679409, -1.2144891, -1.46388905, -1.26156195, -0.815348855, -0.436752325, -0.231371025, -0.131059065, -0.0899742195, -0.157138168, -0.372237685, -0.6469846800000001, -0.786712785, -0.64072934, -0.30648677, -0.16916910000000002, -0.5765821600000001, -1.405491115, -2.0888229999999997, -2.22285155, -1.94715675, -1.56034965, -1.052152505, -0.29241207525, 0.53718021, 1.062137045, 1.1408154000000001, 0.9548727800000001, 0.78727936, 0.792218615, 0.86128883], [0.273127325, 0.232676775, 0.145742441, 0.01433461313, -0.09944027800000001, -0.12633255999999998, -0.0525886342275, 0.06312456425, 0.125842745, 0.0698477114, -0.09443733612, -0.293822405, -0.441983905, -0.4827988, -0.418469765, -0.30203258, -0.187005835, -0.093366414, -0.024481875722, 0.012535396753500001, 0.014091381350000001, -0.014444735711500001, -0.060246088, -0.0974686075, -0.099972734, -0.0715813845, -0.0422936375, -0.0346276625, -0.0580750375, -0.118543781, -0.20641298500000002, -0.292478685, -0.34319550499999996, -0.326436705, -0.22575603, -0.073952917615, 0.0563007435, 0.11498841450000001, 0.1087012075, 0.073402432], [-0.83955945, -0.88660695, -0.7503249200000001, -0.48176187, -0.148182966935, 0.1892926375, 0.474619735, 0.6460241999999999, 0.6512833600000001, 0.485809755, 0.2115058755, -0.05876491449000001, -0.21378102999999998, -0.220361165, -0.14451409999999998, -0.068874424, -0.0022781313375000002, 0.1020502155, 0.25038579, 0.36498832, 0.343802535, 0.15645589, -0.115379130745, -0.33864988500000004, -0.432122125, -0.399947295, -0.29215675, -0.162510975, -0.04618081938, 0.04738686355, 0.124908844, 0.18997286500000002, 0.23108094999999998, 0.22240263500000002, 0.14394785499999999, 0.0175778600105, -0.092266732, -0.13779619, -0.13302258, -0.12000158000000001]]","[[-0.697571925, -0.5541297550000001, -0.3243313, -0.12512315799999998, -0.0757038115, -0.21869930499999998, -0.45601870499999997, -0.56064521, -0.318814975, 0.25367406516, 0.8161839999999999, 0.952539975, 0.579138135, -0.00352018324, -0.446002255, -0.61788311, -0.5961610350000001, -0.51540737, -0.468475855, -0.494977885, -0.593094235, -0.7331712349999999, -0.8698446099999999, -0.9131824199999999, -0.680732145, -0.039295551899999996, 0.83486992, 1.56440395, 1.9970827500000001, 2.2013643, 2.0595639, 1.28651308, 0.05854608975, -0.779725935, -0.57188007, 0.39132437314999996, 1.187423675, 1.2292216999999999, 0.7447584150000001, 0.35987337500000005], [0.098281218, 0.039148567, 0.0062681168555, -0.0099252424, -0.0162762795, -0.013714420949999999, -0.0025365572755, 0.011125852999999998, 0.009038776955, -0.029663134100000002, -0.106866918, -0.20090240999999998, -0.27892205000000003, -0.31059917, -0.284574185, -0.21896351500000003, -0.146922515, -0.0912184645, -0.05813199, -0.044832719, -0.043380075500000004, -0.046148473499999995, -0.051655421, -0.0594515525, -0.065629652, -0.068299543, -0.069749409, -0.0735692335, -0.0856624905, -0.1125998375, -0.153692975, -0.19894335999999999, -0.23544808, -0.25123561, -0.236676275, -0.19203084, -0.13253971, -0.0762413405, -0.030627396, 0.002471771995], [-0.12889614, -0.130257405, -0.12955536499999998, -0.11578563000000001, -0.0870346425, -0.0552731315, -0.0345927285, -0.0267908535, -0.024634116499999997, -0.021089467, -0.013057215, -0.003416966649295, 0.0037224099249999996, 0.0105950622, 0.019620067, 0.027388154999999997, 0.036242896, 0.056267703, 0.084793401, 0.10293867699999999, 0.095958073, 0.065619144, 0.02685072335, -0.00242961657745, -0.0146028245, -0.0159775625, -0.012130118350000002, 0.0006281309665, 0.02380643, 0.0508068975, 0.073616764, 0.08234075049999999, 0.06746482549999999, 0.029435540750000003, -0.022212089935, -0.071763678, -0.10092801, -0.1030596455, -0.0906745615, -0.0759244825]]","[[-0.31821949499999996, -0.12859820900000002, 0.05788582701, 0.1164965735, 0.02833639741, -0.100931646, -0.15508202499999998, -0.138119565, -0.17892028, -0.377761625, -0.64950486, -0.79466526, -0.71274811, -0.490216505, -0.28003458, -0.15073793500000002, -0.09941488650000001, -0.1296402535, -0.24122907000000002, -0.381861615, -0.46243857, -0.41398601, -0.231262065, -0.02109504359, 0.012820262035, -0.28218932550000003, -0.8141746449999999, -1.250201, -1.3395156, -1.1586076, -0.9077271100000001, -0.61942398, -0.21809137856, 0.2491416755, 0.6402337149999999, 0.87196206, 0.972303095, 1.03140005, 1.08270515, 1.06319705], [-0.0530039515, -0.06259975, -0.080568624, -0.121094486, -0.16182722500000002, -0.16550184, -0.115976252, -0.0362861208825, 0.020933390819999998, 0.011509419965500001, -0.0656924075, -0.17290134, -0.260793965, -0.290880135, -0.2533673, -0.17397402499999998, -0.0916122085, -0.026444403755, 0.022759927790000002, 0.058775048999999996, 0.07790465249999999, 0.07714238749999999, 0.0617213515, 0.047119925, 0.047698349, 0.060125772499999994, 0.0676006475, 0.0593191355, 0.035737964500000004, -0.001315708646, -0.0500181175, -0.09900281650000001, -0.124520035, -0.10013863199999999, -0.01653155122, 0.098808756, 0.19192694500000002, 0.22831293, 0.22028346, 0.20185288], [-0.573438195, -0.55559138, -0.42954289, -0.221441515, 0.03471800758, 0.29805170000000003, 0.516154955, 0.62670979, 0.583950315, 0.39882807, 0.150432234, -0.049268510885000005, -0.12047494500000001, -0.070951076, 0.017141640345, 0.0749402805, 0.1123278625, 0.180956385, 0.290196205, 0.375641905, 0.34587411, 0.166872798, -0.09049793831000001, -0.297710025, -0.36817765999999996, -0.306886885, -0.17951025, -0.0516019689755, 0.04777672945, 0.1249260745, 0.19213391000000002, 0.23843384, 0.23185074, 0.14672482, -0.005884436589999999, -0.16672518149999999, -0.26055054, -0.258768025, -0.20212149000000001, -0.144204725]]","[[0.090300104, -0.04449491578, -0.1262451695, -0.178810605, -0.250607, -0.3631931, -0.489894385, -0.597992995, -0.692975335, -0.7821093349999999, -0.80580908, -0.6779934350000001, -0.42327621, -0.18997209, -0.09662798499999999, -0.127446612, -0.186240295, -0.211005695, -0.21369538, -0.22492259, -0.22418954, -0.138188394, 0.07616560102850001, 0.343230265, 0.487267265, 0.378962925, 0.08457440160000002, -0.169247347, -0.227594575, -0.145321962, -0.048197768200000005, 0.053092894534, 0.2340099, 0.49660522, 0.723682305, 0.80353286, 0.7684928200000001, 0.7524582750000001, 0.8108949750000001, 0.848295895], [-0.0625089605, -0.1044204825, -0.18705263500000002, -0.31311368, -0.40192807, -0.376332115, -0.24821850999999998, -0.1195630295, -0.0949337705, -0.189047075, -0.32945601, -0.43747267, -0.47964276, -0.458100225, -0.392503265, -0.31534006000000003, -0.25575753500000004, -0.21746308, -0.18577687999999998, -0.1567503, -0.145474595, -0.16555368999999998, -0.207776225, -0.24372197499999998, -0.25410894, -0.24623392, -0.235533915, -0.223028805, -0.20242926, -0.17971040500000002, -0.17260734, -0.191411675, -0.22410952, -0.23736563, -0.19905377999999999, -0.1105507875, -0.00670752799, 0.079669856, 0.13138154500000002, 0.13079053], [-0.7042474900000001, -0.685546055, -0.555508575, -0.331802355, -0.05753137362499999, 0.193847374, 0.34489844499999994, 0.35706113500000003, 0.26033911, 0.137830285, 0.0628872005, 0.048052565, 0.0534683235, 0.024727560500000002, -0.067244096, -0.192297395, -0.270919795, -0.23909386000000002, -0.1080893675, 0.039596418205, 0.11108193549999999, 0.0700333165, -0.04179602381, -0.1496217, -0.20926732, -0.219054785, -0.192911695, -0.146426275, -0.0972865815, -0.061048538, -0.044128586500000004, -0.0366856075, -0.0112320151895, 0.056861371, 0.16033953, 0.25967966, 0.308846015, 0.273051, 0.1468038265, -0.01805078437165]]","[[0.154173535, 0.118737665, 0.104287569, 0.07812414300000001, -0.0009305582400000002, -0.12364430300000001, -0.214885035, -0.25695745999999997, -0.38096424999999995, -0.715244335, -1.1257880299999998, -1.275635, -1.02728121, -0.60592831, -0.296646195, -0.157586755, -0.08434553299999999, -0.01209909367, 0.025064358499999998, -0.01839941692, -0.10941569749999999, -0.140331335, -0.029618602735000003, 0.150913992, 0.15201464250000002, -0.25081030053500003, -0.939302695, -1.4536159499999999, -1.48065115, -1.15985654, -0.75137725, -0.27748318104999997, 0.31011725349999997, 0.860108765, 1.16742085, 1.2018540500000001, 1.0834041, 0.953103145, 0.875020985, 0.78666096], [-0.0110293696, -0.031285207, -0.0893077265, -0.19366619499999999, -0.292783585, -0.317125685, -0.24697709, -0.136974274, -0.0704176405, -0.0879018835, -0.16381772000000003, -0.24610471, -0.29655386, -0.29549928999999997, -0.24130751, -0.15777456, -0.0811815345, -0.030285495500000002, -0.00021314568750000002, 0.015508610499999999, 0.01307737325, -0.010792995314, -0.046096616, -0.0702508375, -0.0655614335, -0.037733406500000004, -0.010381029799999998, -0.00044839773725, -0.0067858235, -0.022395046999999998, -0.045307964, -0.0739131835, -0.0989972175, -0.09980143650000001, -0.0539648385, 0.0347546480065, 0.1271821165, 0.183517555, 0.196552225, 0.181382955], [-0.67443622, -0.673672375, -0.54198107, -0.32297337499999995, -0.07569255196050001, 0.143979897, 0.29433206500000003, 0.34838153, 0.29919556, 0.17385577000000002, 0.03319919706, -0.0550412655, -0.056586242999999994, 0.00018027262449999998, 0.046162429500000005, 0.0421898895, 0.018774919, 0.031205191, 0.090510647, 0.152327665, 0.15892998, 0.08377644399999999, -0.0487341162625, -0.18082697, -0.26252926, -0.27471687, -0.22483682500000002, -0.1364099225, -0.038210684278, 0.0476743382, 0.110308731, 0.145716645, 0.15219064, 0.12787986, 0.074941089, 0.010752918746549999, -0.036943754, -0.0594271355, -0.075573707, -0.0962112415]]","[[-0.13546915121544445, -0.14555391600166667, -0.08481433015316667, 0.01095929072111111, 0.08168047045166667, 0.10184810506666667, 0.08662175422222224, 0.028585488833333336, -0.12656998946966666, -0.38290990705555555, -0.5976046961111111, -0.5860984633333333, -0.34625709348833333, -0.07381724998916667, 0.05646526322222222, 0.036397850555555555, -0.03669370685666667, -0.09154439888072222, -0.13084548730912224, -0.18158125944444442, -0.22737613127777778, -0.1979358363435, -0.042348899409444446, 0.1672415035, 0.229625566585, -0.011662690358333332, -0.43871415470444447, -0.6920461322222222, -0.5595548477777778, -0.2158088274, 0.05086643985611111, 0.19163258471222222, 0.34262395413166663, 0.53830972, 0.6477983105555556, 0.5723538283333334, 0.4024731808122223, 0.3305274197333333, 0.4310609114944445, 0.5728272122222222], [0.028855060856794443, -0.000913759227777778, -0.0007111045346111115, -0.02206958679333333, -0.060008090970000004, -0.07228308813333334, -0.03555808341277778, 0.024700236978888887, 0.04406952087722222, -0.029742519865444447, -0.18755017076388888, -0.3621160351111111, -0.4732981872222222, -0.4739411061111111, -0.3737927317777778, -0.2320492883, -0.11478444474533334, -0.051543859093255, -0.034108423935555555, -0.04493897826044444, -0.07189258563423889, -0.1072048065693389, -0.14455769043333333, -0.1787365941111111, -0.20472451733333333, -0.21733635727777778, -0.21577578527777777, -0.2022223445722222, -0.17995961856666667, -0.16423573791816667, -0.17968523305555556, -0.2332550876111111, -0.3004883992019445, -0.34137453003888885, -0.32711985941666666, -0.26103275813666665, -0.17072351185005555, -0.07843699058333334, 0.006780566465722222, 0.06548300444444444], [-0.5984571422222222, -0.5903502944444444, -0.48850182777777773, -0.3264817366111111, -0.13686371771088887, 0.050279522917205555, 0.20574577202944444, 0.29756800516666665, 0.29684002155555556, 0.20210739302116668, 0.05536286696427778, -0.07640379786933332, -0.1403519591963889, -0.1315585212973389, -0.0911606972, -0.05969062661111111, -0.03509228165611111, 0.010552921544444444, 0.08051419522483334, 0.1385367814101111, 0.14083151731072222, 0.07361329479727778, -0.035235619454555556, -0.13939836127777777, -0.2103435563888889, -0.24488014416666665, -0.24535524916666668, -0.2103241703336111, -0.14344705895222223, -0.058581789973855554, 0.023155619611988885, 0.07907005786455555, 0.0968417805, 0.081632310465, 0.04707899566596667, 0.00697181231, -0.027551604981166666, -0.05739888507222222, -0.09376297069527778, -0.1300569445]]","[[-0.26011462044444444, -0.22627254079655557, -0.1187440139193889, -0.013071606852777777, 0.01353218174111111, -0.04525085961111111, -0.12992726634166668, -0.20514107122222222, -0.3140555152111111, -0.4944363476161111, -0.6623311594444445, -0.6715272917638889, -0.4926524566666666, -0.25451893400500003, -0.09905369222222223, -0.05222245244444444, -0.056437952722222226, -0.07230252463, -0.11057298855555554, -0.18556662012333333, -0.2631222755222222, -0.2609891887696667, -0.11821788518961113, 0.10168519593444446, 0.19712179455944445, -0.009696831698888887, -0.443950759875, -0.7721813302222222, -0.7465331494444445, -0.47044224300000004, -0.2013565398, -0.020914200327877778, 0.1752020679591111, 0.44782440183333333, 0.7061713788888889, 0.8126433679055556, 0.7402661416172223, 0.6148387908263888, 0.5750878565666667, 0.6086344053411111], [0.009119190743611111, -0.022594690444444444, -0.061652281077166665, -0.12765302034111112, -0.18645377857225554, -0.18553996232777778, -0.11183797328366668, -0.013481187984611112, 0.03436333821944444, -0.00901765123661111, -0.12144684017672222, -0.24623531122222223, -0.33275158833333335, -0.3526837061111111, -0.3056371888888889, -0.22093887111111113, -0.13714816238888888, -0.07297175716388889, -0.027498747052166664, -0.00203102240265, -0.0036892674172222225, -0.030929435280611112, -0.06742540006549999, -0.08983320838888888, -0.08473036845, -0.062229148644, -0.04579155300027778, -0.04768891396258334, -0.06403359558560555, -0.08984029307177778, -0.12482795449999999, -0.16529186327777778, -0.19949838799999997, -0.20898807977777778, -0.1760224466788889, -0.10165324651205555, -0.012072050943333334, 0.06401315466666667, 0.11301184192411111, 0.1267648989381111], [-0.6308865655555556, -0.6269945866666666, -0.5248633561111111, -0.3486190938888889, -0.1316397603845, 0.08196713845499999, 0.24419499616666665, 0.3177090851111111, 0.29256046544227776, 0.1958829573888889, 0.07921506054183333, -0.008637062826032778, -0.04227032091388889, -0.03246390378977778, -0.01924166661611111, -0.02976530195111111, -0.041763281078777775, -0.008775420506716668, 0.07811153866666666, 0.16894207661744445, 0.19302195205555556, 0.11612653755555556, -0.028083665804722224, -0.16267575411971666, -0.22799953927777777, -0.21403244468000002, -0.145346653315, -0.056046518817499995, 0.02379009469466667, 0.07684859469444444, 0.10058586010505556, 0.10054720016666666, 0.08642138109005555, 0.06797737325333333, 0.04756726483055555, 0.024585759755727778, 0.0026726027827777775, -0.02156431888888889, -0.062235031513555555, -0.11434899293018333]]","[[-0.08033151050000001, -0.142656643, -0.12893585500000002, -0.028553190000000003, 0.09832540149999999, 0.19667220100000002, 0.2506318895, 0.22918016125000001, 0.0555566425, -0.29710266734875, -0.68449247, -0.85859768, -0.705536745, -0.3700951875, -0.10518825625725, -0.034448800249999995, -0.11091399422075, -0.2408352125, -0.371211355, -0.474736855, -0.505694495, -0.40030685, -0.14074373295499998, 0.15470147525, 0.234112285, -0.08188507773499999, -0.62483919, -0.94091486, -0.78561259, -0.3879837675, -0.078864176375, 0.1268049325475, 0.40238684999999996, 0.7312032725000001, 0.8961850750000001, 0.792315445, 0.5706442549999999, 0.44679506750000003, 0.47943757, 0.555463125], [0.086141369425, -0.01735648075, -0.0192333225, 0.019719015, 0.069991099625, 0.14032954425, 0.22759198000000003, 0.28834829500000003, 0.275673675, 0.1858519425, 0.0543866470275, -0.07881335808, -0.188069284, -0.25742156, -0.27487199, -0.241779466, -0.1799751825, -0.11695654909525001, -0.0755963552093975, -0.0727428412, -0.10763517800000001, -0.1655096915, -0.22448518, -0.2561687075, -0.24623089499999998, -0.21048600625, -0.17439152875000002, -0.152779574, -0.14926786975, -0.1611789675, -0.1951817575, -0.2643657875, -0.3559470775, -0.42458974499999996, -0.4333783825, -0.38652789249999997, -0.31540848, -0.241611872625, -0.16616421507249998, -0.09416486425000001], [-0.72729248, -0.7546793375, -0.70800283, -0.5933521475, -0.41700328, -0.20086480699999998, 0.015407576836750002, 0.18392243475, 0.266805915, 0.25992181875, 0.19349008699999998, 0.11037101925, 0.047275917397500006, 0.016149845250000003, -0.0058284005, -0.0459926927325, -0.0873023165, -0.072891416733, 0.030344535750000002, 0.18466367256000002, 0.2989327725, 0.2952236625, 0.17232312875000003, 0.005499265765, -0.12155978625, -0.171617635, -0.1512563255, -0.08804871, -0.01509679139825, 0.041707643087499996, 0.07048482425, 0.07265344991850001, 0.060295324, 0.043672721250000004, 0.01799225756125, -0.023543062474999998, -0.07358996741775, -0.122171504725, -0.165975628, -0.1922095075]]","[[-0.18247096730864734, -0.18027106508618357, -0.10532134807502416, -0.004642727448550725, 0.05422185767077295, 0.05026039380676329, 0.01386263249154589, -0.0468702321799517, -0.18432978779599032, -0.4202074151636051, -0.6370798245893721, -0.65878480830314, -0.4567698146326087, -0.19102814793224637, -0.03223691559877174, -0.011373583462560385, -0.05495906862831038, -0.1026510814177053, -0.1533834271150773, -0.22155171133381643, -0.27922032839130434, -0.251746556570942, -0.08816952368937198, 0.13710310522149757, 0.21607871593236716, -0.019967411033792272, -0.4652681180780193, -0.759348661062802, -0.6703355540096618, -0.3489766089782609, -0.07571710993756038, 0.09076515832547585, 0.2776269900394686, 0.5241283059057971, 0.7055761791062802, 0.7055181868429952, 0.571275043012802, 0.4693064046998792, 0.49999132133091784, 0.5861306761144928], [0.027746374968654588, -0.012484953868357488, -0.029623209722512076, -0.06252474027584541, -0.09802806071945894, -0.09379312486352656, -0.03439933160714976, 0.042488494562729476, 0.07005867895507246, 0.007389309412149758, -0.12725261601407006, -0.2747805885901449, -0.3749872003285024, -0.39297881748792274, -0.33125718159420287, -0.22848782574396137, -0.13301093994966184, -0.06939242651552995, -0.036646120674148464, -0.02990993609699758, -0.04690104628324396, -0.08164658665215217, -0.12144723673862318, -0.15018278902173912, -0.15796702360144926, -0.14900491643338165, -0.13647165082741547, -0.12858483944991547, -0.12555372829446618, -0.13149118314780192, -0.1578555281763285, -0.20776377701690824, -0.26381343932693235, -0.2946693623115942, -0.2752851394980676, -0.20810624886900966, -0.12061656817103865, -0.03778582508876811, 0.03041006255134058, 0.07130367135111111], [-0.6293615007729468, -0.6277168184178744, -0.5329417534299516, -0.3709158585869565, -0.17113237482408214, 0.03129879098791546, 0.19763610489005917, 0.2915016611751208, 0.2910618528251449, 0.20694212871089374, 0.08374997982874395, -0.022578067356680918, -0.07323456734392512, -0.06920759630961594, -0.04876125389830918, -0.044892928861727056, -0.04480272073256039, -0.008734749557466184, 0.07292569331152174, 0.15777302599806764, 0.18414491352881643, 0.12100301352297102, -0.005053194188816426, -0.1306192763773889, -0.2064395789311594, -0.22191212145507247, -0.18959947831811594, -0.12729795745700484, -0.05399391377262198, 0.01338221636819082, 0.06299431608349758, 0.08757099695946619, 0.08754424295219806, 0.07074413047536232, 0.04349736424560748, 0.0106498492709686, -0.020415648879875604, -0.05026724146896135, -0.08947421330818842, -0.13133425638268842]]","[0, 1, 2, 3, 4, 5, 6, 7, 8, 9, 10, 11, 12, 13, 14, 15, 16, 17, 18, 19, 20, 21, 22, 23, 24, 25, 26, 27, 28, 29, 30, 31, 32, 33, 34, 35, 36, 37, 38, 39]","[[380675.07, 390047.175, 394957.07, 393897.525, 392116.04, 391024.66, 387923.91, 383826.795, 381082.015, 399812.01, 422398.425, 420730.04, 425791.825, 449580.795, 459706.09, 453082.85, 442282.14, 434128.63, 428251.09, 422701.53, 419914.025, 417532.065, 415440.31, 413631.08, 411778.675, 410103.935, 411975.765, 410817.335, 409039.53, 407934.77, 406748.15, 405714.36, 404661.98, 404447.765, 404806.615, 403427.03, 410505.47, 439367.595, 446520.35, 438453.985], [124752.205, 124654.52, 124578.655, 124601.015, 124549.915, 124451.36, 124357.64, 124268.91, 124182.45, 124155.085, 124070.64, 123979.335, 123886.11, 123812.395, 123727.535, 123640.5, 123561.47, 123481.715, 123407.06, 123332.69, 123258.81, 123192.65, 123126.51, 123059.125, 122993.435, 122929.265, 122859.405, 122792.535, 122725.13, 122658.455, 122597.63, 122531.61, 122472.535, 122417.37, 122357.285, 122294.08, 122230.515, 122174.07, 122112.13, 122046.06], [199703.155, 195471.22, 192357.025, 189865.225, 187934.355, 186319.27, 184571.765, 182985.355, 181462.125, 179975.885, 178563.545, 177233.3, 175994.25, 174693.03, 173469.67, 172281.13, 171128.275, 170012.3, 168908.5, 167822.54, 166700.1, 165674.835, 164673.47, 163766.745, 162798.95, 161804.075, 160801.07, 159826.155, 158970.49, 158054.625, 157051.72, 156093.685, 155142.57, 154243.305, 153363.065, 152443.55, 151511.62, 150565.81, 149654.215, 148744.765]]"
1,exp_2022_10_04_09,40,"[0, 1, 2, 3, 4, 5, 6, 7, 8, 9, 10, 11, 12, 13, 14, 15, 16, 17, 18, 19, 20, 21, 22, 23, 24, 25, 26, 27, 28, 29, 30, 31, 32, 33, 34, 35, 36, 37, 38, 39]",1.0,0.0,"[False, False, False, False, False, False, False, False, False, False, False, False, False, False, False, False, False, False, False, False, False, False]","[0.0, 0.0, 0.0, 0.0, 0.0, 0.0, 0.0, 0.0, 0.0, 0.0, 0.0, 0.0, 0.0, 0.0, 0.0, 0.0, 0.0, 0.0, 0.0, 0.0, 0.0, 0.0]","[[-0.0900170995, -0.03986155305, 0.03899824743, 0.13119765049999998, 0.2034971, 0.239308985, 0.24508507999999998, 0.22002908000000002, 0.15664159, 0.0641289265, -0.036267493224999996, -0.127090753, -0.19037627499999998, -0.20628107499999998, -0.177514915, -0.140339675, -0.130037, -0.139865775, -0.11475967799999999, 0.010131417279999999, 0.23033843, 0.43345858, 0.5070460099999999, 0.46802518499999995, 0.41217676, 0.38672489, 0.37550401499999997, 0.36704908, 0.376374655, 0.40569039500000004, 0.42937666999999996, 0.42481119999999994, 0.38926144, 0.330237275, 0.262091125, 0.204592645, 0.16837728999999999, 0.149733985, 0.14362714000000001, 0.14286004500000002], [0.110984895, 0.0938141295, 0.061209732499999996, 0.027639577499999998, 0.00679423046, -0.003333727259, -0.0109384077, -0.0196393305, -0.0333078975, -0.052782429000000006, -0.059740737, -0.0245028247, 0.0599481305, 0.16614046, 0.253481405, 0.29150948, 0.274563635, 0.22170451, 0.15783264, 0.1027702195, 0.0722020375, 0.0658877255, 0.059852393499999997, 0.0369294685, 0.020750286500000003, 0.051028677, 0.126370215, 0.198619725, 0.224486775, 0.204276295, 0.173124085, 0.164077825, 0.17400403999999997, 0.17378180499999998, 0.15330135, 0.12826568, 0.10729228900000001, 0.0780051105, 0.025790277065, -0.0406449906], [0.02132187757245, 0.10844303500000001, 0.19794629, 0.26503679, 0.314581935, 0.3361227, 0.28095009, 0.140824796, -0.001730097155, -0.053783616, -0.013574740125, 0.0615953665, 0.1270654705, 0.154305145, 0.13248727999999999, 0.0972580865, 0.09301664750000001, 0.09776932349999999, 0.033828336832, -0.12108642250000001, -0.26264366, -0.262958955, -0.1498764595, -0.0760177425, -0.0909458835, -0.0788652155, 0.0481469887715, 0.21245993500000002, 0.268387765, 0.1807424, 0.0457642942945, -0.049772805, -0.107007087, -0.166286695, -0.24837775999999998, -0.311167925, -0.26655658, -0.1115478495, 0.03543714972, 0.07446712]]","[[0.0509328115, 0.160122533, 0.324882235, 0.42920674, 0.385320075, 0.24287666000000002, 0.1106817685, 0.0338555405, 0.00434796405, 0.01157048385, 0.035904269, 0.051735463, 0.0569343245, 0.067491265, 0.086830399, 0.11222844950000001, 0.163141075, 0.251375485, 0.32044088000000004, 0.27171066, 0.084058314235, -0.106490913, -0.1271895265, 0.028171161675, 0.222341025, 0.33779936499999996, 0.35435676, 0.326673705, 0.31602393, 0.33562407, 0.35421792500000004, 0.33810815, 0.2915155, 0.27218849, 0.3325913, 0.36517999500000003, 0.052276480650000005, -0.8024970650000001, -1.8161000999999999, -2.25487315], [0.10039367950000001, 0.08215007999999999, 0.038379078, -0.013216593951, -0.049638222, -0.0597492015, -0.0440130215, -0.01275562772445, 0.015377385450000001, 0.0297738325, 0.043869814, 0.0818234065, 0.149480305, 0.225908335, 0.27548669, 0.26851137999999997, 0.20378583500000003, 0.11071390599999999, 0.0293755194, -0.0057622079195, 0.017879117824, 0.0745460915, 0.11827816000000001, 0.129884375, 0.13121005500000002, 0.14935900500000002, 0.18428649, 0.216076885, 0.2265854, 0.20882187, 0.168047215, 0.1186799775, 0.076338256, 0.0497875395, 0.0341031475, 0.0109764834725, -0.02923424475, -0.067704123, -0.085171639, -0.088310777], [0.59107472, 0.33736413, 0.796855555, 1.2013745, 0.920695755, 0.36863259, 0.39735764500000004, 0.87327016, 0.7227105149999999, -0.39854610090000003, -1.38647945, -1.2145159300000001, -0.367540448, -0.055813459458, -0.626505765, -1.3014149000000002, -1.189107755, -0.2387597032, 0.786810845, 1.0719963799999999, 0.44272798796499996, -0.46837654450000005, -0.904178615, -0.869082385, -0.987368385, -1.3436583999999998, -1.071882195, 0.39523485555500004, 2.061803, 2.3882279, 1.237724175, -0.215285043, -1.1740986900000001, -1.7421852999999998, -2.033944, -1.77265965, -0.62712827225, 0.95046233, 1.64180445, 0.8484162999999999]]","[[-0.167175725, -0.17525382, -0.22250778000000002, -0.23883453500000001, -0.162594051, -0.011894811174999999, 0.140268576, 0.22279984500000002, 0.20497632, 0.1108254525, -0.0078303354215, -0.109970943, -0.17095622500000002, -0.17667511000000002, -0.13641417, -0.0882136795, -0.06989514449999999, -0.0781304855, -0.052299926000000004, 0.08546265038499999, 0.33052660500000003, 0.54522451, 0.58891137, 0.48870346499999995, 0.38301886, 0.34109578, 0.33194608999999997, 0.32202661, 0.32111076, 0.34139677999999996, 0.368210295, 0.37865822, 0.357575685, 0.29912744, 0.218451395, 0.157845185, 0.16706672, 0.27074303, 0.433888625, 0.56102958], [0.18809889999999999, 0.16550864499999998, 0.16013658, 0.15800608, 0.13421169, 0.078907001, 0.0182900161105, -0.017237389000000002, -0.0334973175, -0.0491636435, -0.0470726885, 0.01326602569, 0.1420152325, 0.305076315, 0.44609698999999997, 0.507530005, 0.46201552999999995, 0.33430695499999996, 0.18216997, 0.06882368600000001, 0.0352924075, 0.06590402499999999, 0.097498442, 0.0932498455, 0.08528005999999999, 0.117924208, 0.18047396500000001, 0.230898585, 0.257331545, 0.282484215, 0.3245384, 0.368021685, 0.36427937, 0.279322415, 0.1380541575, -0.008844813299999999, -0.1323015545, -0.219301615, -0.259983285, -0.250543205], [0.0991894535, 0.13951826, 0.157524055, 0.149030905, 0.13509925, 0.129539355, 0.127294605, 0.11614925, 0.09570896599999999, 0.083711187, 0.0962254405, 0.126761725, 0.153466215, 0.159135515, 0.1405204, 0.10580594, 0.068459671, 0.044146185500000004, 0.042711792500000005, 0.0523940075, 0.044459961000000006, 0.008750246565, -0.028191171499999997, -0.034020134, -0.005731850719, 0.038633652, 0.09235745449999999, 0.16810524000000002, 0.265827115, 0.34810799000000003, 0.363282455, 0.29020321, 0.165273865, 0.06083582, 0.015808244, 0.017269878000000002, 0.052398298499999996, 0.1084281025, 0.14689749000000002, 0.1260946715]]","[[-0.18621907000000001, -0.187864315, -0.185672195, -0.116126682, 0.052397870954999995, 0.27373939, 0.46071381, 0.543275545, 0.51196286, 0.415768115, 0.304046045, 0.19440707499999998, 0.101868283, 0.0523076605, 0.051578743999999996, 0.07805411999999999, 0.11856534, 0.18139066499999998, 0.26515212, 0.33894220500000005, 0.362996045, 0.32575386, 0.26640731, 0.251867795, 0.30349354500000003, 0.36156509, 0.3585986, 0.30558415499999997, 0.266023995, 0.26510991, 0.27162248, 0.25384363, 0.20852934, 0.15018527, 0.102270238, 0.0798297295, 0.0678538305, 0.046017524500000004, 0.0306188475, 0.04820297], [0.398758175, 0.374582835, 0.304956165, 0.220397255, 0.1360192715, 0.0469168483, -0.042848154145, -0.12087745500000001, -0.18666887, -0.23596967500000002, -0.23440603, -0.14382607849999998, 0.026874117979999997, 0.225212605, 0.39542191000000004, 0.49713341, 0.515246495, 0.45969615500000005, 0.345689675, 0.20290797000000002, 0.085997141, 0.0274394445, -0.0007739427767, -0.0335022455, -0.048502513, -0.0044002285845, 0.0833185975, 0.15695862, 0.19073727000000001, 0.210414085, 0.25325167, 0.32884157999999997, 0.40510851999999997, 0.43929949, 0.416692675, 0.33752052499999996, 0.201358955, 0.034306933467, -0.09551357449999999, -0.1121123585], [0.23065776, 0.22428094999999998, 0.21164779500000003, 0.180848905, 0.13884544, 0.10194216049999999, 0.086733987, 0.09626229650000001, 0.11330531, 0.120976525, 0.121262495, 0.123891665, 0.12962189999999998, 0.130385975, 0.11734912, 0.082238303, 0.0231080140175, -0.039998327, -0.0778770045, -0.0961671675, -0.12895679, -0.18458860000000002, -0.23886766999999998, -0.273566775, -0.286978575, -0.27066478499999996, -0.20566035500000002, -0.087286081, 0.056568170095, 0.175859295, 0.23247871, 0.2292471, 0.20328831, 0.19021474000000002, 0.20190258, 0.23507065000000002, 0.28836417000000003, 0.352516245, 0.393808785, 0.37919914499999996]]","[[-0.02018745613075, 0.03724821885, 0.14885095, 0.314495295, 0.489369515, 0.6257417550000001, 0.703031445, 0.69953113, 0.5920026899999999, 0.39414449500000004, 0.160175328, -0.042775444494999995, -0.155988705, -0.155091315, -0.0760357925, 0.004932696835, 0.0361190735, 0.02779763, 0.0291735795, 0.083858933, 0.19071307999999998, 0.29277988, 0.33890405, 0.35376046, 0.39165948, 0.44914213, 0.48498234500000004, 0.50129062, 0.54197025, 0.61622283, 0.676754655, 0.6706658249999999, 0.572684965, 0.390119265, 0.174221032, 0.0017687943400000001, -0.08663335500000001, -0.11022814500000001, -0.1014784975, -0.07670464199999999], [0.350636555, 0.210781075, 0.0961118985, 0.046150141, 0.045984622999999995, 0.0462620335, 0.024021550949999998, -0.0048802037475, -0.0253927665, -0.0331138855, -0.004957869215, 0.0958077205, 0.27324533500000003, 0.48139208000000006, 0.6468913700000001, 0.6999848799999999, 0.61657297, 0.437276485, 0.22988077, 0.055874726810000004, -0.0382567102, -0.049832008500000004, -0.0322451725, -0.027529073999999997, -0.0017311590764999998, 0.1028082665, 0.26731831, 0.40236053, 0.44613207000000005, 0.41658277499999996, 0.37513661499999995, 0.362857435, 0.362779015, 0.324848835, 0.22407755999999998, 0.07726974399, -0.08085182815, -0.217272945, -0.30430344000000004, -0.31653396], [0.28501154, 0.298388325, 0.25222389, 0.176588455, 0.1122211615, 0.080910435, 0.07841482250000001, 0.0858646255, 0.0867028395, 0.0815573555, 0.0846009115, 0.1053144955, 0.137810875, 0.16416561500000001, 0.16449775, 0.1288432455, 0.062523105, -0.01533112105, -0.080496625, -0.123852075, -0.153295575, -0.16898903499999998, -0.16098187500000002, -0.13229878, -0.094127377, -0.03963393825, 0.04624806236, 0.1519679665, 0.23337458000000003, 0.24528349, 0.17829507499999997, 0.0664426217, -0.037598825495, -0.0925535125, -0.0848800825, -0.020619809615, 0.086007666, 0.19202677, 0.23036258499999998, 0.17507657000000001]]","[[-1.099899065, -0.63008097, 0.14975233055, 0.01343120865, -1.622341195, -3.8413952, -5.259206000000001, -5.22068565, -3.99466155, -2.3075107, -0.747652113, 0.43747739495, 1.1146265499999999, 1.191737, 0.8353641, 0.422120045, 0.141919505, -0.129283277685, -0.53031013, -0.943145325, -1.0156367400000001, -0.449850354785, 0.5761249815, 1.30049655, 1.1462923600000001, 0.539303255, 0.35421448499999997, 0.706948235, 0.91982619, 0.595636515, 0.104748206525, 0.0052917377, 0.473431765, 1.228441425, 1.6941671, 1.41208075, 0.43027969745, -0.926379235, -2.4168700000000003, -3.6152982000000002], [0.30016846999999997, 0.32834800999999997, 0.301068295, 0.22988171000000002, 0.1399444945, 0.04840405535, -0.02953224036, -0.08382013799999999, -0.123092725, -0.154715555, -0.152561455, -0.0794055135, 0.059158035284999994, 0.21362644, 0.332479305, 0.38542492500000003, 0.371219535, 0.31374879499999997, 0.24073222000000002, 0.179531405, 0.15681618, 0.168556685, 0.168409255, 0.1232378795, 0.063619095, 0.046757326, 0.0855631095, 0.144916645, 0.19041855, 0.215470895, 0.23594674999999998, 0.27039363, 0.313078875, 0.33809264999999994, 0.328757245, 0.279485725, 0.188624865, 0.07005390065, -0.0444136600865, -0.121200948], [0.16544524500000002, 0.17359928, 0.18386764, 0.171617875, 0.14153383, 0.11578702999999999, 0.11714479000000001, 0.15072731, 0.19565069999999998, 0.23184767, 0.266207265, 0.31547003, 0.376017255, 0.42030852500000004, 0.41643463500000005, 0.34837447, 0.235464205, 0.13751639000000002, 0.10653942000000001, 0.12275401999999999, 0.12034743, 0.072746931, 0.014145470004, -0.01214552745, 0.0054469854335692, 0.0517039145, 0.111921658, 0.19415118499999998, 0.30242054, 0.39267661, 0.39616805499999996, 0.29526351, 0.15621022399999998, 0.0695967655, 0.0627162935, 0.09565451550000001, 0.131189655, 0.15913865, 0.16718064000000002, 0.116040073]]","[[-0.0093004704235, 0.0206208457, 0.0528972675, 0.112434353, 0.21899926, 0.36224147500000003, 0.492462815, 0.541393485, 0.47560874499999994, 0.32860903, 0.170732995, 0.060757019999999995, 0.0261730235, 0.061590996999999995, 0.131405718, 0.189425525, 0.21174843, 0.21159772, 0.22022946999999998, 0.25079907, 0.276273995, 0.25259728, 0.17936094, 0.1130764405, 0.095415027, 0.1004085285, 0.0795739265, 0.0322014415, 0.0012903792615000002, 0.013060800420000001, 0.048243376500000004, 0.067793405, 0.04827084400000001, 0.00043741966, -0.0381453245, -0.040959220500000004, -0.02041697305, -0.0006623153365, 0.02044301925, 0.048633632499999996], [0.1444396775, 0.220780095, 0.21618379499999998, 0.15124824, 0.0848315575, 0.047831909, 0.024409768249999998, -0.012666169055, -0.069408741, -0.12726483, -0.154993865, -0.125907789, -0.037329077599, 0.084732187, 0.198484565, 0.26003371999999997, 0.241235985, 0.1464860725, 0.009230699795, -0.11721225199999999, -0.1741836, -0.1385929195, -0.0553803675, 0.0040907139185, 0.023889233, 0.051326937499999996, 0.12131477650000001, 0.210271315, 0.269036, 0.27218383500000004, 0.23349647, 0.195730245, 0.20477653, 0.279908535, 0.39606405, 0.489227915, 0.49283906, 0.3813138, 0.190444379, 0.003011073225], [0.27920197, 0.289577945, 0.24769217999999998, 0.173084975, 0.0947455225, 0.0402399155, 0.0228712845, 0.0361994745, 0.062441054999999995, 0.089774335, 0.119328635, 0.15771705, 0.20817145, 0.26056718, 0.281296045, 0.22637068, 0.08780208995000001, -0.073064008845, -0.17153442, -0.18652119, -0.16728997, -0.16245217, -0.17455613499999997, -0.17770428500000002, -0.1515246, -0.09687787, -0.03550422575, 0.00787596744, 0.024428408500000002, 0.0197522045, 0.005144256507, -0.0074084834499999995, -0.012137671999999999, -0.007605651084, 0.017526756284, 0.07544857249999999, 0.145888415, 0.18066878, 0.152587435, 0.0844607165]]","[[-0.130130114, -0.032220765425, 0.05244315099999999, 0.084692381, 0.0684641285, 0.0529004415, 0.0742100265, 0.121407347, 0.1451304, 0.11320952549999999, 0.04385047645, -0.01995135117815, -0.0479250335, -0.031472685550000004, 0.0291776162365, 0.1225156445, 0.224277385, 0.30912095, 0.32643473, 0.21029274, -0.011737164575, -0.19411994, -0.2238632, -0.13801709750000002, -0.047391262, -0.012989401000000001, -0.021429510500000002, -0.017976837696500002, 0.0391630304, 0.1217571495, 0.15714656500000002, 0.122571478, 0.0777811065, 0.091234839, 0.153164475, 0.17030367500000002, 0.06130398884, -0.13296689, -0.26813578, -0.23619151], [0.17592958500000003, 0.15521691, 0.0782643585, -0.03734329897, -0.155336711, -0.24048148000000003, -0.266951535, -0.23057422500000002, -0.157428595, -0.078841126, 0.006314193274999999, 0.125837637, 0.289207295, 0.45982252500000004, 0.5661935849999999, 0.54150537, 0.375355045, 0.13072338549999998, -0.096250427501, -0.22330270500000002, -0.21064267999999997, -0.08436797475, 0.07099103166, 0.175647365, 0.21421077, 0.22146239999999998, 0.225142835, 0.22277553, 0.19970364, 0.149126385, 0.078949987, 0.008918596247, -0.0375567275, -0.038092869, 0.017919639345000002, 0.106944599, 0.17423817, 0.17534454, 0.10503664900000001, -0.0072604055255], [-0.056321610499999994, 0.036405430546000005, 0.1248208625, 0.20072746, 0.257870315, 0.26973771, 0.20463987499999997, 0.06197116440600001, -0.114622492, -0.264209965, -0.33890805, -0.311059715, -0.179077603, 0.018774814835, 0.213541025, 0.34290937, 0.39553321500000005, 0.418795235, 0.441406275, 0.40890272000000005, 0.268155665, 0.071072196215, -0.0599489015, -0.0440435181, 0.097642275, 0.27579940000000003, 0.41061982999999996, 0.472624755, 0.45671367500000004, 0.34944507999999996, 0.151106336, -0.074385492235, -0.21451148, -0.21267762, -0.1338254365, -0.077527053, -0.050904929, 0.00760638925235, 0.0810803655, 0.016990770215]]","[[0.256271745, 0.33313605, 0.153920949, -0.050156689675, -0.060182644099999995, 0.05432533394, 0.116746075, 0.148003065, 0.23508439, 0.31696536000000003, 0.304185985, 0.21350101999999999, 0.048549120055, -0.220100924, -0.49244866000000004, -0.55475695, -0.35295716, -0.09420678575000001, 0.0115695649365, -0.020705302237, -0.021863096092, 0.101586518, 0.24247072, 0.238123115, 0.056445923875000005, -0.210410553, -0.40729418500000003, -0.41012007500000003, -0.270942635, -0.20350338499999998, -0.287049235, -0.338428455, -0.207867305, -0.03364240767113, -0.059866567149999994, -0.275830045, -0.331523235, 0.07442306785, 0.725175675, 1.067907], [0.365063375, 0.411913835, 0.364682595, 0.21688758, 0.005073326354999999, -0.2090446, -0.355483915, -0.392216885, -0.33981235499999995, -0.25380536, -0.155039439, -0.014618448795, 0.1895490195, 0.42667219500000003, 0.6183364250000001, 0.67714971, 0.565708605, 0.32793625499999995, 0.05493224983, -0.159860268, -0.24684669, -0.19680828000000003, -0.0782650925, 0.021947509615, 0.080244743, 0.13229957, 0.200101965, 0.259849995, 0.27239821, 0.21547078500000003, 0.0983033925, -0.033655695815, -0.1209449095, -0.126298745, -0.056959795199999996, 0.0351474304565, 0.087433181, 0.0699520165, -0.0091904296, -0.12239129500000001], [-0.059679859, 0.032472584565, 0.1159420415, 0.16282531, 0.17012441, 0.14330637, 0.084043967, -0.011185703485, -0.132553345, -0.24231713500000002, -0.29576865, -0.270023385, -0.170630965, -0.023061442125, 0.1380538575, 0.28101691500000003, 0.37860174, 0.40865724999999997, 0.37209538999999997, 0.287020895, 0.16898881, 0.046148901785199994, -0.02689619865, -0.0024530113100000002, 0.1167436655, 0.2723775, 0.383800995, 0.405284805, 0.353847845, 0.27702127, 0.20413727999999998, 0.1324015045, 0.0615637555, 0.018236786, 0.0325343365, 0.110930259, 0.229048105, 0.326664855, 0.325597085, 0.17990932050000003]]","[[-0.69097953, -0.554547465, 0.15195917734, 1.153043845, 1.75864465, 1.660888, 1.18916231, 0.78544174, 0.605620515, 0.61054155, 0.74526044, 0.923425065, 1.02279254, 0.997607625, 0.8980354800000001, 0.842833795, 0.9733194550000001, 1.24975165, 1.37840275, 1.093323115, 0.47750473499999996, -0.058705057634999995, -0.191130655, 0.013035536325000001, 0.27895301499999997, 0.4543112, 0.5541479850000001, 0.59381113, 0.56816079, 0.52936022, 0.53184745, 0.551800115, 0.548507495, 0.547851655, 0.5912308500000001, 0.557451635, 0.09186543275, -1.047313535, -2.42862405, -3.1500974000000004], [0.2700924, 0.266162995, 0.20047246999999999, 0.084451707, -0.052232486849999996, -0.167074255, -0.21672164500000002, -0.19115290000000001, -0.1270703235, -0.066426168, -0.0081340033695, 0.08302309199999999, 0.22748833499999999, 0.398938645, 0.529727085, 0.551984995, 0.44849627, 0.262503405, 0.065745216885, -0.07005593, -0.1010438385, -0.044637188349999996, 0.0333636564325, 0.084145925, 0.112060171, 0.14270401, 0.18027075499999998, 0.205809435, 0.19764281, 0.14713231000000002, 0.0666726845, -0.015835910365, -0.07251914649999999, -0.090241145, -0.0835463215, -0.08962410800000001, -0.12942557000000002, -0.179064895, -0.202425315, -0.18963553], [-0.043471570016, 0.11038822350000001, 0.278416045, 0.426339225, 0.521642255, 0.52474606, 0.42356596500000004, 0.26103819, 0.109500725, 0.01817959487, 0.001774816169, 0.067002042, 0.21640111999999997, 0.41618432499999997, 0.570085225, 0.55793513, 0.36461818, 0.1502488465, 0.0737102835, 0.1002033705, 0.112632565, 0.0799832965, 0.037848583, 0.01307446575, 0.0095324829, 0.015498774500000001, 0.0065190641245, -0.026872140149999998, -0.0728194725, -0.1348841525, -0.24228370500000002, -0.38669314499999996, -0.48727928, -0.489402015, -0.45114222499999995, -0.44668543, -0.43792077, -0.34405751, -0.22024729, -0.28200429499999996]]","[[0.0821665365, 0.04798090815, -0.041194590286499994, -0.083857604, 0.021228721035000002, 0.250057615, 0.469745725, 0.55359682, 0.47724372000000004, 0.31592326, 0.1541364145, 0.028375041385, -0.047398762000000004, -0.060274312999999996, -0.022837841332, 0.024173904250000003, 0.053337378500000004, 0.072783725, 0.10754953049999999, 0.16985969, 0.228914535, 0.21442248, 0.10218239999999999, -0.016642920670000002, -0.03367680005, 0.03617337632, 0.0928156685, 0.09053971949999999, 0.068667092, 0.066305642, 0.0703295585, 0.045174716999999996, -0.026588328887500002, -0.1289992495, -0.218092665, -0.250707645, -0.20626755500000002, -0.075423486245, 0.1322758985, 0.34726464], [0.193746465, 0.264994155, 0.25911536, 0.19454961, 0.128145075, 0.086908648, 0.053997815500000004, 0.001589097393, -0.08156052300000001, -0.17512323999999999, -0.228171605, -0.19635299499999997, -0.08670494749999999, 0.049571208275, 0.15961468, 0.209275075, 0.19171254999999998, 0.13031784800000001, 0.054748601, -0.0124577298455, -0.0477873425, -0.0455277435, -0.0419924125, -0.0710803385, -0.0952479355, -0.0376681635955, 0.1057397735, 0.239435155, 0.270810865, 0.20558247999999998, 0.134418385, 0.14458403, 0.241989165, 0.3563738, 0.41354705, 0.38361838, 0.27919121, 0.13626751950000002, 0.0008982161365000001, -0.079335351], [0.28108941000000004, 0.1535322545, 0.00436825819, -0.075299556, -0.0626779635, -0.0013628388014999997, 0.0329246735, -0.006670967192, -0.080794349, -0.113512925, -0.096082319, -0.0786493815, -0.0776789345, -0.06093197349999999, -0.036088749, -0.095791579, -0.31531085000000003, -0.611201855, -0.80255545, -0.8328737549999999, -0.804495905, -0.8239603700000001, -0.914033895, -1.0165052350000001, -1.0026752449999998, -0.7384032349999999, -0.244905025905, 0.2351591325, 0.46127342499999996, 0.46027245499999997, 0.465769455, 0.634447145, 0.9183147300000001, 1.18271225, 1.3700881, 1.52490245, 1.66296425, 1.69981175, 1.54280745, 1.21256095]]","[[-0.02809152795, -0.0090173057, -0.030763762, -0.0064517804840000005, 0.1490806285, 0.41187702000000004, 0.65986193, 0.765928935, 0.69085999, 0.501510295, 0.30192714, 0.161914635, 0.10645409, 0.128108075, 0.18900930999999999, 0.240729255, 0.26017651, 0.262879915, 0.28206651, 0.32678881, 0.347314895, 0.27149474, 0.1076603855, -0.031168378285, -0.052728488000000004, 0.005655571165, 0.040263544, 0.011191260773, -0.032487431500000004, -0.0362970795, -0.0052689392275, 0.01393204685, -0.01133331679, -0.065127767, -0.0971013025, -0.0791825225, -0.03804642, -0.002237640973, 0.055144479999999996, 0.15895958999999998], [0.28752448999999997, 0.34758778999999995, 0.33000537, 0.28056074, 0.268396095, 0.306187285, 0.3331955, 0.281170335, 0.1452984875, -0.016144012085, -0.137115017, -0.183828045, -0.155801785, -0.069033394, 0.055914561345, 0.19122812, 0.30167346500000003, 0.35521289, 0.33568848, 0.260463255, 0.18133681, 0.143078825, 0.14019673, 0.136575465, 0.12561011, 0.13992847, 0.19721637, 0.269425695, 0.31785273, 0.33490782, 0.341486105, 0.360062835, 0.39250989, 0.416627995, 0.40574272499999997, 0.35281912499999996, 0.27097812, 0.16575759, 0.030030853844999997, -0.1190096395], [0.136210525, 0.115919963, 0.0408362462, -0.020396547908999998, -0.021116068499999998, 0.0174861905215, 0.0394360095, 0.022260782649999998, -0.0030779420135000003, -0.0060705525000000005, 0.00087337147525, 0.0036092708, 0.0283079216, 0.10050925749999999, 0.17899199500000001, 0.164913495, 0.00519952556, -0.20424656500000002, -0.293283305, -0.23208026, -0.15904686, -0.198625565, -0.34021365000000003, -0.47549094, -0.48972348, -0.32108818, -0.004865945085, 0.325256545, 0.5302305549999999, 0.58219117, 0.567095525, 0.5724945, 0.614059765, 0.67054808, 0.73866251, 0.83674813, 0.967670285, 1.0827878, 1.10375815, 0.9725783749999999]]","[[0.166535475, 0.15533341, 0.09267162600000001, 0.076731141, 0.19730024499999999, 0.426246135, 0.6350279249999999, 0.7022747300000001, 0.60874657, 0.43282769000000004, 0.25656704999999996, 0.1120271005, 0.01602297533, -0.007485742486, 0.03359864365, 0.0824936245, 0.0865261205, 0.057799853, 0.07722931100000001, 0.22015141, 0.434089565, 0.52994782, 0.397116725, 0.16880302149999998, 0.0468171435, 0.0510286435, 0.0579467725, -0.00016396143649999987, -0.0782937765, -0.118823755, -0.122075455, -0.12287390000000001, -0.15065820500000002, -0.208075035, -0.26400794, -0.278183865, -0.22769045, -0.097983955, 0.10617307671500001, 0.31420323499999997], [0.35728593, 0.30365451, 0.215384735, 0.135935755, 0.092303945, 0.071744633, 0.050635542000000006, 0.0165493856665, -0.03320014405, -0.0817070425, -0.09322628999999999, -0.054675501, 0.0053181628255, 0.0630684965, 0.128329027, 0.21406208499999999, 0.3162621, 0.407940745, 0.436591745, 0.3746536, 0.26559147, 0.170092715, 0.09374274700000002, 0.025673823, 0.0057376578185500005, 0.0804037505, 0.21716861, 0.327774395, 0.36168146, 0.33298362, 0.277694585, 0.21987459999999998, 0.16573681, 0.1128429885, 0.051688758, -0.032178649665, -0.135369119, -0.22664997499999998, -0.26991012999999997, -0.242109505], [-0.19351355, -0.148402355, -0.0841339225, -0.052389902, -0.047523814, -0.029681824899999997, 0.033115019215, 0.1377385815, 0.24026196500000002, 0.29162307, 0.296951645, 0.302307685, 0.32359646499999994, 0.335891075, 0.336514875, 0.381668135, 0.5383677250000001, 0.79281916, 1.04156826, 1.202033, 1.2754734, 1.30002555, 1.30908705, 1.3074942999999999, 1.23005105, 0.9569402549999999, 0.465241115, -0.04548073462, -0.316450595, -0.30611321, -0.21797191999999999, -0.27665484, -0.520562055, -0.81002771, -0.9973642850000001, -1.0654309, -1.0748556999999999, -1.024596015, -0.865750465, -0.633546285]]","[[0.0569255775, 0.042704029, 0.00734817538, 0.02794495705, 0.1515422255, 0.322492185, 0.43816844000000005, 0.44169096500000005, 0.348898925, 0.216476315, 0.09709189350000001, 0.01792025169, -0.01423522285, -0.00588026226415, 0.0229267888, 0.053459262, 0.0887844035, 0.13539104500000002, 0.165919715, 0.133921495, 0.030180369269999997, -0.0980683095, -0.1891376, -0.20412549500000002, -0.14378175, -0.060593769, -0.0170235725, -0.019127463, -0.0224715175, 0.00026466459750000006, 0.0310782435, 0.0410334125, 0.0245696565, 0.00072856026, -0.006504732199999999, 0.010595245864, 0.0463318615, 0.1067382415, 0.2007987, 0.292190065], [0.22669093499999998, 0.226511265, 0.175573635, 0.1013682495, 0.0383393105, -0.007080286315, -0.041783494000000004, -0.067235873, -0.08622720449999999, -0.09849934899999999, -0.0844338845, -0.02060959247, 0.08749838950000001, 0.209204525, 0.315525485, 0.386730715, 0.410413605, 0.380224045, 0.2937827, 0.17047708, 0.060907525, 0.0032420583635, -0.0203081065, -0.046453297500000004, -0.065353995, -0.03491958936, 0.050872411299999996, 0.14872629, 0.212004695, 0.22188332500000002, 0.188364625, 0.14365814999999998, 0.12245093000000001, 0.13983286, 0.18107413, 0.20431645499999998, 0.16948128499999998, 0.073916901, -0.046157376915, -0.14089373500000002], [-0.00456394472, 0.0676966425, 0.110904701, 0.12917465, 0.120347815, 0.071203006, -0.019696560685, -0.126722569, -0.21081191, -0.24600096000000002, -0.23183167999999998, -0.18029000499999998, -0.097231899, 0.01466633552, 0.139683538, 0.24713947, 0.30636107, 0.30395627000000003, 0.24755804, 0.1515344325, 0.031938021204, -0.079198756, -0.13666807, -0.1120122215, -0.015124771139499999, 0.117750331, 0.253033445, 0.36839762, 0.44125470499999997, 0.451107095, 0.39936978500000003, 0.31444542, 0.23391093000000002, 0.18592261000000002, 0.17859335999999998, 0.19925656, 0.230660225, 0.262892875, 0.27628547999999997, 0.22780095]]","[[0.110320115, 0.11192468, 0.10533149, 0.147529085, 0.2664022, 0.40709407, 0.47418371, 0.41101712999999995, 0.24637349, 0.063004810925, -0.0834762765, -0.187354585, -0.246981495, -0.25123586, -0.21436405, -0.17114708, -0.128399845, -0.0600263245, 0.048115175955, 0.17251946, 0.264154015, 0.28137980500000004, 0.2361432, 0.200752785, 0.22081972, 0.24416629, 0.19771251, 0.099915748, 0.0318596905, 0.0235942745, 0.032476054, 0.016624888531, -0.02453473835, -0.0662621055, -0.08040201100000001, -0.0578820315, -0.015243652879000001, 0.0404187283, 0.126366666, 0.22803764], [0.34994439499999996, 0.30772452, 0.23373019500000003, 0.16647278499999998, 0.115818935, 0.062565029, 0.00156379283, -0.051879366, -0.0924823265, -0.120259345, -0.1112408045, -0.0350014991005, 0.100873162, 0.25376945, 0.38294126, 0.46634625, 0.49859057, 0.47771037, 0.394921015, 0.26094274500000003, 0.125411887, 0.0315958039125, -0.02932774865, -0.07901425200000001, -0.0924751545, -0.02892716659, 0.0947857785, 0.21219538, 0.27895216, 0.30198263000000003, 0.30952929, 0.315533705, 0.30661094, 0.26379459, 0.187480795, 0.085742337, -0.03499679201, -0.1522772065, -0.23033100999999997, -0.24497335499999998], [0.025800414127, 0.0993838165, 0.162396465, 0.19124386000000002, 0.17423462, 0.108217043, 0.012371239775, -0.071736477, -0.1067337, -0.0815369235, -0.00931869014, 0.09012585749999999, 0.201901875, 0.30690831500000004, 0.370507805, 0.357775615, 0.27505777, 0.18635105, 0.15258428500000001, 0.15822979, 0.1416612, 0.0801026495, 0.0080106932975, -0.0305003045, -0.020139833149999998, 0.024789314314, 0.083925119, 0.156696775, 0.24368809500000002, 0.3156729, 0.33761209000000003, 0.313058655, 0.28138427499999996, 0.26735317, 0.24899989, 0.19830454, 0.131190405, 0.0815921795, 0.0591971985, 0.040534603999999995]]","[[-0.0013952020235, 0.02059622690641285, 0.0984823945, 0.21746463, 0.347423785, 0.441272595, 0.469097885, 0.430280305, 0.341567355, 0.21647645499999998, 0.053915657495, -0.13252656200000001, -0.28869687, -0.366242905, -0.37721438999999996, -0.36408408000000003, -0.33136332500000004, -0.24739367, -0.1174304575, -0.0127174338905, -0.0089566088495, -0.0981946915, -0.17650722, -0.1392227455, 0.022098347895, 0.21386497999999998, 0.33609709000000004, 0.383133395, 0.42108297499999997, 0.47680044000000005, 0.509537105, 0.48124991, 0.40394923, 0.31589782499999997, 0.24300535499999998, 0.18976317, 0.150895675, 0.12732841, 0.13497035999999998, 0.179784675], [0.31951922, 0.204090665, 0.11075365449999999, 0.04959551549999999, 0.00102983774, -0.062420840000000005, -0.13706579, -0.19475471500000002, -0.22509481, -0.23634689, -0.217635085, -0.140749967, -0.002684036925, 0.16272334, 0.310300255, 0.40428299500000003, 0.432979135, 0.40755304000000003, 0.33908919, 0.24103072999999997, 0.14615179, 0.079894631, 0.028580058, -0.024177019965, -0.048042267, -0.0003691259249999999, 0.1025115685, 0.19555653, 0.240164595, 0.25137379, 0.258247935, 0.265667315, 0.25093269, 0.19395999, 0.107039794, 0.020008880473500003, -0.053029398, -0.1150477935, -0.167092815, -0.197514015], [0.081452002, 0.10997597499999999, 0.0927600065, 0.0508320855, -0.0028131787945000005, -0.0622622545, -0.118381673, -0.15997027, -0.180314175, -0.175966985, -0.14557842499999998, -0.0934085225, -0.031174894800000002, 0.0223253086785, 0.049555207000000004, 0.053672908, 0.063030381, 0.099345324, 0.14676693999999998, 0.16392772, 0.125398548, 0.054974624, 0.01157376985, 0.035826035, 0.11801128699999999, 0.21962470499999998, 0.319045635, 0.415684875, 0.49426463, 0.52496309, 0.50676878, 0.480907365, 0.48895034000000004, 0.526325515, 0.5402111949999999, 0.47211408, 0.31765400499999996, 0.144491686, 0.0249327709399, -0.0329051995]]","[[-0.007511305550000001, -0.052109502, -0.091320048, -0.014910476139499999, 0.1824191755, 0.36023977, 0.38774719500000004, 0.27164319, 0.130039406, 0.0636437115, 0.0604996635, 0.052367224999999996, 0.0231755063, 0.00487814935, 0.0057803735, 0.002645292643, -0.01050688855, -0.0043460440655, 0.054742110000000004, 0.17414353, 0.309627355, 0.37429895, 0.32361259, 0.22305786000000002, 0.17317272500000003, 0.192976525, 0.229033705, 0.234826315, 0.20627020999999998, 0.16968333000000002, 0.15036436, 0.13901263, 0.10427075999999999, 0.054293315, 0.0390657, 0.034797223255, -0.113740621475, -0.507194565, -0.95666749, -1.1206685], [0.16480131, 0.10599356350000001, 0.02860041259, -0.0420819975, -0.086727241, -0.1000071995, -0.0847107055, -0.05298260800000001, -0.0263200705, -0.0155199965, -0.0028984773200000005, 0.039575988, 0.1168254705, 0.204350695, 0.265700045, 0.27233689, 0.218348565, 0.1219555075, 0.01622870654, -0.058721698, -0.074186762, -0.041572933, -0.006473825035900001, 0.0018410266835, 0.0012388236334999999, 0.0257886481, 0.079205009, 0.13305415, 0.158375685, 0.14566716, 0.10170205299999999, 0.0391749418, -0.0264739228335, -0.0733018375, -0.08252450850000001, -0.061666413, -0.041348665, -0.040753069, -0.0529670065, -0.05846740450000001], [-0.020838760430000002, 0.0644780985, 0.129177495, 0.16920224, 0.18889938999999997, 0.17246401, 0.09599399950000001, -0.0336820557395, -0.167005195, -0.24772696, -0.25233684, -0.193664655, -0.10007601049999999, 0.004539424265, 0.105857763, 0.19609228, 0.276676035, 0.34962761, 0.38693678499999995, 0.33856056, 0.199844765, 0.035933436405, -0.0752680465, -0.096462949, -0.032261731242, 0.09230001100000002, 0.243649505, 0.37514738000000003, 0.42592525000000003, 0.353484215, 0.176247751, -0.021764571705, -0.14164287, -0.1461632, -0.0796687355, -0.001363234746, 0.0676014685, 0.11767335599999999, 0.114730952, 0.0172917777]]","[[-0.19118704, -0.0896209021, 0.10599842021, 0.29877538000000003, 0.37717522000000003, 0.32850811, 0.22372074, 0.1251200395, 0.056146816, 0.012253015721, -0.03160448425, -0.09262325, -0.15064785, -0.16897168499999998, -0.14566874, -0.114927695, -0.09580708850000001, -0.070079292, -0.019140611034, 0.050771628, 0.11557606200000001, 0.15495324, 0.18588952, 0.24987824, 0.350256695, 0.430446495, 0.442164685, 0.41351026500000004, 0.41382205, 0.466058235, 0.528119975, 0.54354345, 0.49011412, 0.402013195, 0.3422619, 0.31495011500000003, 0.21223178, -0.070352941051, -0.437956505, -0.637240105], [0.1253958435, 0.065796112, 0.001064658964, -0.052382602, -0.08836516700000001, -0.10998903, -0.118731705, -0.1185397, -0.122564955, -0.13613224000000002, -0.13839575, -0.101755461, -0.02512752392, 0.0666924415, 0.14596651, 0.195079275, 0.208717865, 0.18984025, 0.1457135, 0.094481067, 0.0613135385, 0.050316369, 0.0367121905, 0.0076624273545, -0.00773000884, 0.0259021665075, 0.0983350205, 0.16193793, 0.18369089500000002, 0.170952745, 0.151309095, 0.1407774, 0.133186775, 0.11773626, 0.0951585485, 0.06777252049999999, 0.031400508, -0.0109019102795, -0.0446736575, -0.052748243], [0.09645466450000001, 0.125258145, 0.128650765, 0.11343778500000001, 0.08623813350000001, 0.0440443205, -0.014256060340000001, -0.076871964, -0.12213908500000001, -0.13455874, -0.11538766049999999, -0.0765157975, -0.031681924, 0.0063941930955000005, 0.029640631, 0.041089534, 0.058850117, 0.104380185, 0.169555145, 0.20858570499999998, 0.18766512, 0.1224802395, 0.051403458000000006, 0.0023004223805, -0.0033348557545, 0.0542939525, 0.17150068000000002, 0.30918075, 0.410700005, 0.43357558500000004, 0.37528009500000004, 0.27867974, 0.20571784999999998, 0.18592222, 0.19603985999999998, 0.208497695, 0.22989858500000002, 0.26513172, 0.288541935, 0.26021686]]","[[-0.19800963500000002, -0.1962646, -0.178335285, -0.107652597, 0.026387145335, 0.19278454499999997, 0.34038505999999996, 0.41984109, 0.412237775, 0.33888912499999996, 0.23078663500000002, 0.113538975, 0.022556582343699998, -0.00890660775, 0.0142196198425, 0.0576270335, 0.1029538795, 0.152584075, 0.19999756999999999, 0.23081327000000001, 0.243734805, 0.246211695, 0.250406935, 0.28310478499999997, 0.35061176000000005, 0.40409885500000003, 0.39726967, 0.35608086, 0.34037752, 0.35940659500000005, 0.371848525, 0.34661414, 0.28407093499999997, 0.202109605, 0.1282824, 0.08255067099999999, 0.0584636885, 0.044792598, 0.0525091435, 0.08678355850000001], [0.288272145, 0.160300056, 0.04780017525, -0.009724296787, -0.020014400499999998, -0.021732019999999998, -0.033305252, -0.047043281500000006, -0.0593110955, -0.066255627, -0.0398529049, 0.049390965185, 0.19076221499999998, 0.344086785, 0.47496416, 0.560836955, 0.587601535, 0.5472691000000001, 0.43557495500000004, 0.27352271, 0.11572811350000001, 0.002449662215, -0.076561518, -0.134434795, -0.135362555, -0.042597672935000004, 0.1055362005, 0.22163248, 0.259338645, 0.24472537, 0.23467306000000002, 0.26092621, 0.29690543999999996, 0.282068395, 0.185337265, 0.033069029148500004, -0.11504824949999999, -0.20569296999999997, -0.22424223999999998, -0.19291887], [-0.213426115, -0.20524646000000002, -0.15969177, -0.109607795, -0.079922615, -0.07735679100000001, -0.088652363, -0.093044768, -0.08092805500000001, -0.058572209, -0.034383374, -0.0087005520605, 0.0194251265, 0.0438927875, 0.060155538, 0.078043089, 0.116478196, 0.18208666999999998, 0.250599145, 0.277293045, 0.238321305, 0.15520665, 0.07311859799999999, 0.024585397000000002, 0.018125977499999998, 0.049062317999999994, 0.1125195465, 0.20207805499999998, 0.296859425, 0.36988717, 0.413681565, 0.44710113999999995, 0.49490253500000003, 0.55908112, 0.6143102300000001, 0.63394149, 0.617310445, 0.5871330100000001, 0.5548671199999999, 0.49677007]]","[[-0.021885130500000002, -0.063832917, -0.159788295, -0.221813995, -0.163578888, -0.0027076897150000007, 0.163235174, 0.24483324500000003, 0.218855355, 0.127802193, 0.028127379313000002, -0.048547152, -0.0864165535, -0.0797610785, -0.050459999, -0.034211556500000004, -0.0344882365, -0.0183125181165, 0.03136342505, 0.0768649715, 0.051334043249999996, -0.069198487755, -0.21580224999999997, -0.272285725, -0.195035675, -0.056709283705, 0.0513607951, 0.1191258145, 0.19136085000000003, 0.28208806, 0.360746795, 0.399739395, 0.39298292500000004, 0.34704841999999997, 0.28703928, 0.25596924, 0.289943895, 0.39487175999999996, 0.532519765, 0.62733512], [0.333424345, 0.24704622499999998, 0.13884667350000002, 0.03200351373, -0.0609927955, -0.13527803, -0.178708715, -0.186488095, -0.18089384, -0.1823386, -0.168850965, -0.101170673, 0.018222586645, 0.1427061425, 0.228005295, 0.26257778000000004, 0.264744425, 0.2564264, 0.240988245, 0.21782466, 0.19808480500000003, 0.18113330000000002, 0.142102755, 0.076081628, 0.029020333, 0.0464082605, 0.11029376600000002, 0.162998195, 0.17408318, 0.156032565, 0.13492816, 0.12430027, 0.11544323000000001, 0.0964008415, 0.073111219, 0.050184667, 0.012124319916499999, -0.0533234445, -0.130616144, -0.18367705], [-0.061014231, -0.071014085, -0.0899167785, -0.11046078, -0.12795531999999998, -0.14686558, -0.17481783499999998, -0.21225934999999999, -0.24709396000000003, -0.26012749, -0.24231131, -0.20496005, -0.16916308000000002, -0.147370935, -0.132106765, -0.0967288065, -0.01587114198, 0.1024676165, 0.21176911499999998, 0.26108412999999997, 0.231168655, 0.148506735, 0.0682500955, 0.035201809, 0.059803851000000005, 0.128119284, 0.226142835, 0.34124305499999996, 0.447776135, 0.521428475, 0.5680834149999999, 0.612160095, 0.6589471, 0.6919247900000001, 0.6967084800000001, 0.666941615, 0.607506615, 0.54506299, 0.50723269, 0.48643576000000005]]","[[-0.17442551689491664, -0.088812101975, 0.03538329068816667, 0.07184875635, -0.038406508389999997, -0.20071374329722222, -0.2847785282222222, -0.2538663175, -0.15852747343888887, -0.06148126796111111, 0.008566176255944444, 0.05255150029576111, 0.07632857561111112, 0.08259249155, 0.08017265093383333, 0.08054411450944444, 0.08324178249999999, 0.078531848535, 0.06351228622222221, 0.053101337851666666, 0.0751607888511111, 0.14597504246833334, 0.24532048166666665, 0.31660455988944447, 0.3192587772166667, 0.2821358904244444, 0.2678402643888889, 0.29270408092261113, 0.3167166979623889, 0.3067560102133333, 0.2756277479472222, 0.2563242625222222, 0.26582914629027776, 0.29255246379555555, 0.29785763061111115, 0.23332598981555555, 0.07042668048777778, -0.17574028856461113, -0.4268589830277778, -0.559452959388889], [0.2181284891111111, 0.21068621494444442, 0.16838058472222223, 0.10859030228655556, 0.052328445439999996, 0.005740676265666667, -0.030396023099388887, -0.05565127118155, -0.07722000556111111, -0.09746672794444444, -0.0924133602711111, -0.028140045667777776, 0.09732160290733333, 0.245720239475, 0.36379449999999997, 0.4067675827777778, 0.36130084222222225, 0.2538860124444444, 0.12815662974377778, 0.02790812361611111, -0.011409272097333334, 0.009334813916666667, 0.042737487431477775, 0.04788088771316667, 0.043719765769277774, 0.07762204753555556, 0.1532808968888889, 0.22470144333333333, 0.25280467944444446, 0.2405492038888889, 0.21965661966666666, 0.218011667083, 0.23386633816666666, 0.24481357783333332, 0.23583520826055554, 0.2004960264625, 0.13346188017777777, 0.04122368012411111, -0.05191289748722222, -0.11254788026672223], [0.21074115173027225, 0.19567884556066667, 0.24188294729888887, 0.2714455898888889, 0.22810169394444443, 0.16017211746649998, 0.1498146413888889, 0.17273312330155555, 0.11993027192722222, -0.0246872816, -0.12749109023611113, -0.07927496605555556, 0.056428464444444444, 0.13232192631966666, 0.08928130455555555, -0.007267376, -0.059834628614722225, -0.031125320121666668, 0.03098146331466667, 0.032838501944444445, -0.07122120622611111, -0.21319514452444444, -0.29072102805511113, -0.29282048689444445, -0.27958473953171453, -0.24466294191666665, -0.09429531200261111, 0.19447699511055558, 0.45897740873277776, 0.5067074916111111, 0.34174809020016667, 0.12986130700166668, -0.01136295838833333, -0.079772133676, -0.09255392280177778, -0.025958707957222226, 0.15802474147222223, 0.39323457413915003, 0.48799626113555555, 0.337034035135]]","[[-0.08635407506372222, -0.06953522668817634, 0.014705295047777778, 0.17523466332338888, 0.3493017509261111, 0.459646413365, 0.4800809376666667, 0.4257936038333333, 0.32983180077777774, 0.2313238740162222, 0.15079643978422222, 0.08424745202111111, 0.033063290291522225, 0.012666848149983334, 0.020761525199166665, 0.039409844015888894, 0.07233538610555555, 0.132818752702, 0.2021332209412222, 0.23775460506772222, 0.21302714896338887, 0.14029166262333334, 0.06895458277777779, 0.05811091803611111, 0.12265688682166667, 0.20817665953277778, 0.24985662667777778, 0.24234578922927777, 0.23024097683333333, 0.24315911823305555, 0.2659936725, 0.2663048934478889, 0.23036357535000002, 0.17728949275111114, 0.14221897797777777, 0.12333460040211111, 0.054784178710666674, -0.11207725091677778, -0.29665670375388886, -0.3532968568333333], [0.27060294705555554, 0.20969776794444445, 0.12802517886711112, 0.051737625493666665, -0.006760006956666667, -0.05214133320166667, -0.08431421907444445, -0.09928079475927777, -0.10590719661666666, -0.11149836199999999, -0.09607424050994444, -0.031330294265055555, 0.07990852895838889, 0.20506005783333334, 0.30905101355555553, 0.36824866, 0.3762393411111111, 0.3390469847222222, 0.2631816970472222, 0.16712832933333335, 0.08866205872222223, 0.04805715757122222, 0.022425578749622224, -0.009852726047444445, -0.022322999431994447, 0.023821475644166666, 0.11544212436666668, 0.19663164277777778, 0.22954823611111108, 0.2191926127777778, 0.19145794305555555, 0.16600852015944445, 0.14358597174072224, 0.11589921583333335, 0.07942440883333333, 0.030847190939666667, -0.032912408954833335, -0.10108826253105554, -0.1520461883238889, -0.16699307861111112], [-0.03701345450433333, 0.016946444555555554, 0.06317366738888888, 0.08975237427777777, 0.09257192063394445, 0.06716755434444445, 0.01658241460722222, -0.041723409137722225, -0.08502926555555555, -0.09940973362555555, -0.081380168719, -0.03312266639561111, 0.03688853091111111, 0.11149231433988889, 0.16998820188888888, 0.2018541505, 0.22039648133555556, 0.25236474799999997, 0.29789422205555555, 0.3179390836666667, 0.2826781754671111, 0.21089049165611112, 0.14970623679416667, 0.13105632823672222, 0.15162927301266665, 0.18426432725711112, 0.2090641049582778, 0.23289729280333332, 0.26346646416666664, 0.2810134630555556, 0.2574208728888889, 0.19569331758833333, 0.13492542500000002, 0.10788183333333333, 0.10518752994444444, 0.09617515725044445, 0.0765605865, 0.07059158794444445, 0.08219893238221111, 0.06451047135555556]]","[[0.114090108525, 0.16205937215, 0.0615785935, -0.0283042350795, 0.0444489922, 0.23310117697, 0.38830400249999997, 0.456966, 0.46297219, 0.4092378275, 0.30305656249999996, 0.18770782749999998, 0.0775016050275, -0.0459964245, -0.151719675, -0.1570138475, -0.046390324999999996, 0.084336564625, 0.14681803746825, 0.1530417538815, 0.162725899454, 0.18654062899999999, 0.17506555275, 0.1034773683575, 0.0018587179375, -0.10237749091750001, -0.1835153205, -0.1994644071135, -0.15171503325, -0.11990023225, -0.14615908711375, -0.162248204075, -0.109600310895, -0.049385087335564994, -0.07848393482499999, -0.17750628375000002, -0.18478482750000003, 0.0360927134385, 0.3901600775, 0.613433295], [0.3262939325, 0.37975081250000003, 0.3473439825, 0.24872416, 0.1367347106775, 0.048571342499999996, -0.011144207500000001, -0.055523275000000004, -0.09725693375000001, -0.13497468604250001, -0.146077228, -0.0992232468975, 0.01687361725, 0.1788194005, 0.3371254931725, 0.434188915, 0.433691035, 0.3415745725, 0.195310364915, 0.0503014935, -0.03275494, -0.0268647275, 0.03096581875, 0.07926148730749999, 0.10292742649999999, 0.13611402, 0.1986591675, 0.264637845, 0.29512547, 0.2751893025, 0.21989474874999998, 0.1632035695925, 0.13578249025, 0.145164625, 0.1743914649, 0.19398327772825, 0.1792056505, 0.11785480325, 0.010420212122500001, -0.12070046725], [0.038265333, 0.0741962737825, 0.07838914385, 0.0712143810455, 0.07450417075, 0.08039628026075, 0.06173998825, 0.0055375395825, -0.06781564350675, -0.12419384375, -0.147447639262375, -0.1332070571, -0.07116152170000001, 0.038723907687499996, 0.15852292625, 0.222965205, 0.19190063278, 0.1022053425, 0.039406042499999995, 0.0274703175, 0.004970975, -0.0762383316074, -0.183554924325, -0.238971975655, -0.18648990725, -0.02435534, 0.18946752495750002, 0.365270675, 0.44203919999999997, 0.42960622, 0.3856164025, 0.35244800225, 0.33781176025, 0.344392433, 0.38559842325, 0.4738391945, 0.598359195, 0.7047263275, 0.7146776174999999, 0.57624384775]]","[[-0.09850111278310386, -0.047708485660076676, 0.029809636428671498, 0.10373571702153864, 0.1409695392157005, 0.14298392311251207, 0.13556243921497585, 0.13435525492753622, 0.13486781927777777, 0.12722345839352658, 0.10881721077833334, 0.08396143502907488, 0.057670585830818834, 0.035417570586949276, 0.02409490157956522, 0.0316738279457971, 0.06159133526328502, 0.10289198722804349, 0.13464822539300847, 0.14642107351471256, 0.14652422071769566, 0.14879517121376812, 0.15947596968236716, 0.17641682105774156, 0.19237968670416666, 0.19982578377477053, 0.2011488238768116, 0.20661328174688648, 0.21801876731335748, 0.22345437337886473, 0.21642334535352054, 0.20606725858591787, 0.20144027320512076, 0.19783757841130314, 0.18110062093103863, 0.13191682830115942, 0.030337135194975846, -0.12043031541297344, -0.26368159283985504, -0.316834707705314], [0.25505200692028984, 0.23230835940821254, 0.1741778079736232, 0.10215007642618358, 0.037647326820253624, -0.013838806167826088, -0.051327610619057974, -0.07460393410470773, -0.0923062096968599, -0.10845978076399758, -0.10100468225263284, -0.03879883217481884, 0.07925748566987922, 0.21931570324275362, 0.3365144180466546, 0.39359692055555556, 0.37723804079710144, 0.3023501603985507, 0.19562236359369564, 0.09135952217367149, 0.029315784619516908, 0.021448936190386472, 0.03237078774178261, 0.02687243819911836, 0.022728258385775364, 0.06185988225205314, 0.1427481615241546, 0.21770627809178744, 0.2482132854589372, 0.2357820032246377, 0.2074273858031401, 0.18825272092182366, 0.18182045955756038, 0.17576616572463766, 0.15981611154951691, 0.12588617422636594, 0.06709181146649758, -0.010655713666062803, -0.08731870529320047, -0.13728308654471014], [0.08052491179388648, 0.10212355315259662, 0.14285798167077293, 0.16633142542622462, 0.14914124600147344, 0.10932980690833453, 0.08039958803091787, 0.05768303306025363, 0.006328831878105072, -0.07015442102198068, -0.11004589162340156, -0.06624336938311594, 0.03129066906328502, 0.11105713607208938, 0.1334027757910628, 0.11368536347826087, 0.09484001850210146, 0.10952218722971015, 0.14812934700879227, 0.1560950786352657, 0.09258620075695653, -0.010946153195892754, -0.08525272546019323, -0.10150250058879226, -0.07995758204089037, -0.029437050721545895, 0.07461263062735507, 0.23345890887560386, 0.37176331865193235, 0.39852296550724636, 0.3108060364517633, 0.18751696750652172, 0.09778521508115942, 0.05714236067710145, 0.05578831918159421, 0.09233400332314008, 0.18004047237922705, 0.2935843740580846, 0.34112977337728984, 0.24974680905024155]]","[0, 1, 2, 3, 4, 5, 6, 7, 8, 9, 10, 11, 12, 13, 14, 15, 16, 17, 18, 19, 20, 21, 22, 23, 24, 25, 26, 27, 28, 29, 30, 31, 32, 33, 34, 35, 36, 37, 38, 39]","[[151407.395, 157968.75, 158713.675, 156257.095, 154203.06, 153834.91, 155953.405, 159146.045, 159199.23, 157776.91, 156283.595, 156279.085, 155713.05, 154912.135, 154649.61, 155184.655, 155070.39, 154871.88, 155084.015, 156423.2, 157460.895, 157127.885, 159040.325, 165668.585, 167212.14, 167310.48, 166973.75, 164710.03, 162588.55, 161300.605, 160392.06, 159803.93, 159759.3, 160363.24, 160541.415, 160388.84, 159999.13, 160209.02, 160666.63, 160549.805], [264242.385, 262093.03, 259943.115, 258007.47, 256152.945, 254194.93, 252328.805, 250228.05, 248347.995, 246789.295, 244820.24, 243187.155, 241434.59, 239475.095, 237771.05, 236020.12, 234631.265, 233001.985, 231079.855, 229442.05, 227597.09, 225352.96, 223364.845, 221607.12, 219910.255, 218443.57, 216529.66, 214729.8, 213039.775, 211053.95, 209386.25, 207613.695, 205908.44, 204203.83, 202565.475, 201168.05, 200542.8, 200159.98, 219527.235, 242188.6], [-114377.0685, -120726.256, -121399.868, -118303.4685, -119587.7065, -122453.085, -120533.92, -118689.93, -125238.815, -124216.935, -119763.525, -122897.795, -121436.147, -115876.88449999999, -115673.0705, -111793.0215, -106232.406, -110891.977, -108603.72, -106824.256, -113644.039, -111459.91699999999, -112051.61, -119735.59, -118602.9525, -124201.935, -117735.2845, -122021.476, -119692.8035, -122684.29, -124832.975, -120989.725, -125369.05, -122336.05, -127131.925, -116853.0585, -118644.055, -114326.50949999999, -118367.554, -117629.92550000001]]"
