"",experiment_id,mission,num_time_steps_in_coordination_scale,fnirs_time_steps_in_coordination_scale,final_team_score,mission_order,best_channel_value,best_channel_name,gsr_time_steps_in_coordination_scale,gsr,vocalic_time_steps_in_coordination_scale,vocalic_previous_time_same_subject,vocalic_previous_time_diff_subject,vocalic_subjects,pitch,intensity,jitter,shimmer,conversational_semantic_link_time_steps_in_coordination_scale,avg_vocalic,advisor_condition
0,exp_2022_10_14_10_A,Saturn_A,1020,"[0, 1, 2, 3, 4, 5, 6, 7, 8, 9, 10, 11, 12, 13, 14, 15, 16, 17, 18, 19, 20, 21, 22, 23, 24, 25, 26, 27, 28, 29, 30, 31, 32, 33, 34, 35, 36, 37, 38, 39, 40, 41, 42, 43, 44, 45, 46, 47, 48, 49, 50, 51, 52, 53, 54, 55, 56, 57, 58, 59, 60, 61, 62, 63, 64, 65, 66, 67, 68, 69, 70, 71, 72, 73, 74, 75, 76, 77, 78, 79, 80, 81, 82, 83, 84, 85, 86, 87, 88, 89, 90, 91, 92, 93, 94, 95, 96, 97, 98, 99, 100, 101, 102, 103, 104, 105, 106, 107, 108, 109, 110, 111, 112, 113, 114, 115, 116, 117, 118, 119, 120, 121, 122, 123, 124, 125, 126, 127, 128, 129, 130, 131, 132, 133, 134, 135, 136, 137, 138, 139, 140, 141, 142, 143, 144, 145, 146, 147, 148, 149, 150, 151, 152, 153, 154, 155, 156, 157, 158, 159, 160, 161, 162, 163, 164, 165, 166, 167, 168, 169, 170, 171, 172, 173, 174, 175, 176, 177, 178, 179, 180, 181, 182, 183, 184, 185, 186, 187, 188, 189, 190, 191, 192, 193, 194, 195, 196, 197, 198, 199, 200, 201, 202, 203, 204, 205, 206, 207, 208, 209, 210, 211, 212, 213, 214, 215, 216, 217, 218, 219, 220, 221, 222, 223, 224, 225, 226, 227, 228, 229, 230, 231, 232, 233, 234, 235, 236, 237, 238, 239, 240, 241, 242, 243, 244, 245, 246, 247, 248, 249, 250, 251, 252, 253, 254, 255, 256, 257, 258, 259, 260, 261, 262, 263, 264, 265, 266, 267, 268, 269, 270, 271, 272, 273, 274, 275, 276, 277, 278, 279, 280, 281, 282, 283, 284, 285, 286, 287, 288, 289, 290, 291, 292, 293, 294, 295, 296, 297, 298, 299, 300, 301, 302, 303, 304, 305, 306, 307, 308, 309, 310, 311, 312, 313, 314, 315, 316, 317, 318, 319, 320, 321, 322, 323, 324, 325, 326, 327, 328, 329, 330, 331, 332, 333, 334, 335, 336, 337, 338, 339, 340, 341, 342, 343, 344, 345, 346, 347, 348, 349, 350, 351, 352, 353, 354, 355, 356, 357, 358, 359, 360, 361, 362, 363, 364, 365, 366, 367, 368, 369, 370, 371, 372, 373, 374, 375, 376, 377, 378, 379, 380, 381, 382, 383, 384, 385, 386, 387, 388, 389, 390, 391, 392, 393, 394, 395, 396, 397, 398, 399, 400, 401, 402, 403, 404, 405, 406, 407, 408, 409, 410, 411, 412, 413, 414, 415, 416, 417, 418, 419, 420, 421, 422, 423, 424, 425, 426, 427, 428, 429, 430, 431, 432, 433, 434, 435, 436, 437, 438, 439, 440, 441, 442, 443, 444, 445, 446, 447, 448, 449, 450, 451, 452, 453, 454, 455, 456, 457, 458, 459, 460, 461, 462, 463, 464, 465, 466, 467, 468, 469, 470, 471, 472, 473, 474, 475, 476, 477, 478, 479, 480, 481, 482, 483, 484, 485, 486, 487, 488, 489, 490, 491, 492, 493, 494, 495, 496, 497, 498, 499, 500, 501, 502, 503, 504, 505, 506, 507, 508, 509, 510, 511, 512, 513, 514, 515, 516, 517, 518, 519, 520, 521, 522, 523, 524, 525, 526, 527, 528, 529, 530, 531, 532, 533, 534, 535, 536, 537, 538, 539, 540, 541, 542, 543, 544, 545, 546, 547, 548, 549, 550, 551, 552, 553, 554, 555, 556, 557, 558, 559, 560, 561, 562, 563, 564, 565, 566, 567, 568, 569, 570, 571, 572, 573, 574, 575, 576, 577, 578, 579, 580, 581, 582, 583, 584, 585, 586, 587, 588, 589, 590, 591, 592, 593, 594, 595, 596, 597, 598, 599, 600, 601, 602, 603, 604, 605, 606, 607, 608, 609, 610, 611, 612, 613, 614, 615, 616, 617, 618, 619, 620, 621, 622, 623, 624, 625, 626, 627, 628, 629, 630, 631, 632, 633, 634, 635, 636, 637, 638, 639, 640, 641, 642, 643, 644, 645, 646, 647, 648, 649, 650, 651, 652, 653, 654, 655, 656, 657, 658, 659, 660, 661, 662, 663, 664, 665, 666, 667, 668, 669, 670, 671, 672, 673, 674, 675, 676, 677, 678, 679, 680, 681, 682, 683, 684, 685, 686, 687, 688, 689, 690, 691, 692, 693, 694, 695, 696, 697, 698, 699, 700, 701, 702, 703, 704, 705, 706, 707, 708, 709, 710, 711, 712, 713, 714, 715, 716, 717, 718, 719, 720, 721, 722, 723, 724, 725, 726, 727, 728, 729, 730, 731, 732, 733, 734, 735, 736, 737, 738, 739, 740, 741, 742, 743, 744, 745, 746, 747, 748, 749, 750, 751, 752, 753, 754, 755, 756, 757, 758, 759, 760, 761, 762, 763, 764, 765, 766, 767, 768, 769, 770, 771, 772, 773, 774, 775, 776, 777, 778, 779, 780, 781, 782, 783, 784, 785, 786, 787, 788, 789, 790, 791, 792, 793, 794, 795, 796, 797, 798, 799, 800, 801, 802, 803, 804, 805, 806, 807, 808, 809, 810, 811, 812, 813, 814, 815, 816, 817, 818, 819, 820, 821, 822, 823, 824, 825, 826, 827, 828, 829, 830, 831, 832, 833, 834, 835, 836, 837, 838, 839, 840, 841, 842, 843, 844, 845, 846, 847, 848, 849, 850, 851, 852, 853, 854, 855, 856, 857, 858, 859, 860, 861, 862, 863, 864, 865, 866, 867, 868, 869, 870, 871, 872, 873, 874, 875, 876, 877, 878, 879, 880, 881, 882, 883, 884, 885, 886, 887, 888, 889, 890, 891, 892, 893, 894, 895, 896, 897, 898, 899, 900, 901, 902, 903, 904, 905, 906, 907, 908, 909, 910, 911, 912, 913, 914, 915, 916, 917, 918, 919, 920, 921, 922, 923, 924, 925, 926, 927, 928, 929, 930, 931, 932, 933, 934, 935, 936, 937, 938, 939, 940, 941, 942, 943, 944, 945, 946, 947, 948, 949, 950, 951, 952, 953, 954, 955, 956, 957, 958, 959, 960, 961, 962, 963, 964, 965, 966, 967, 968, 969, 970, 971, 972, 973, 974, 975, 976, 977, 978, 979, 980, 981, 982, 983, 984, 985, 986, 987, 988, 989, 990, 991, 992, 993, 994, 995, 996, 997, 998, 999, 1000, 1001, 1002, 1003, 1004, 1005, 1006, 1007, 1008, 1009, 1010, 1011, 1012, 1013, 1014, 1015, 1016, 1017, 1018, 1019]",590,1,"[[0.039648213, 0.0518143865, 0.1129660275, 0.13970372, 0.086126822, -0.0016381700500000002, -0.040165096, -0.0011495183149999998, 0.0666547425, 0.090240288, 0.02155160477, -0.1419195325, -0.333641475, -0.434994685, -0.38706846, -0.260209175, -0.15990816, -0.13231145, -0.172382795, -0.23700918999999998, -0.282208305, -0.314115335, -0.35832873499999995, -0.380633285, -0.30584339499999996, -0.1369126495, 0.016459439125, 0.042626131049999995, -0.07295861216999999, -0.24742086, -0.390429525, -0.477446275, -0.5206001100000001, -0.517666595, -0.468035725, -0.38814069500000004, -0.26895811, -0.076631460285, 0.17369071000000003, 0.399037435, 0.51853664, 0.51639642, 0.43391742499999997, 0.317304225, 0.187016095, 0.0500610586885, -0.078000288, -0.16847363, -0.19800681999999997, -0.17718416999999997, -0.151055645, -0.15576688, -0.17527999000000002, -0.16010887000000001, -0.09562752050000001, -0.032987648, -0.0377687705, -0.112432133, -0.186485785, -0.19127724000000002, -0.13794123, -0.10843052, -0.17246591, -0.319247995, -0.45295676999999995, -0.445615245, -0.224890497, 0.16560757484, 0.5669146, 0.7855879299999999, 0.76206149, 0.65450799, 0.6702136, 0.83433235, 0.99625819, 1.0143031, 0.8735073950000001, 0.661033805, 0.46220523999999996, 0.27147907, 0.02323072448, -0.29240932000000003, -0.5858439400000001, -0.75221109, -0.7723278100000001, -0.69961164, -0.5782868, -0.417622665, -0.23391911499999998, -0.075701034, 0.006475461225, 0.003728729831, -0.048118527999999994, -0.10188131800000001, -0.12293351, -0.10043113249999999, -0.0495382685, -0.00595443723555, -0.007206081076, -0.0546922665, -0.100093689, -0.090641, -0.023317725259999998, 0.057846324, 0.1041234925, 0.08938438550000001, 0.009824860749999999, -0.11028613599999999, -0.20801248, -0.21674740499999998, -0.127903617, 0.0017194069875, 0.111837642, 0.19137079, 0.25420881, 0.28066795, 0.223234565, 0.066702996025, -0.1539945445, -0.375424315, -0.5218970199999999, -0.53477747, -0.408377135, -0.1904023905, 0.037859957175, 0.19758749, 0.26356366000000003, 0.27693109, 0.29476954, 0.33327625, 0.364067075, 0.352401375, 0.289913425, 0.198710165, 0.1101770705, 0.03349905795, -0.0465245188, -0.1343526645, -0.206735445, -0.23491018, -0.21672410500000003, -0.181092445, -0.15795683500000002, -0.15097583, -0.14563897, -0.13148081, -0.10464804150000001, -0.064097448, -0.0166878658905, 0.0316902178, 0.092155618, 0.174394325, 0.25674565, 0.2978154, 0.27375183, 0.203335225, 0.131994155, 0.080634073, 0.03269884775, -0.011016752950999999, -0.002376132854, 0.092125758, 0.23133917, 0.33393985, 0.36488959, 0.36283285499999995, 0.38343407999999995, 0.436885665, 0.48409404, 0.48025606000000004, 0.41889138000000004, 0.33749755, 0.281542055, 0.260202265, 0.23396861000000002, 0.1480273525, -0.006531591325, -0.16523265899999998, -0.25491502, -0.2746572, -0.290867035, -0.36799522500000004, -0.50645064, -0.6418680999999999, -0.709788225, -0.703348005, -0.65715564, -0.5966776699999999, -0.527227395, -0.46058996999999996, -0.42829855, -0.45585838500000003, -0.534828875, -0.63760651, -0.7303547399999999, -0.778044835, -0.762920715, -0.689870845, -0.58236339, -0.46445740999999996, -0.33812666, -0.199875835, -0.07972088399999999, -0.034260508, -0.08918803, -0.19381483500000002, -0.24093371000000002, -0.14767613799999998, 0.08470127515999999, 0.384248955, 0.660386715, 0.843067825, 0.907516, 0.8923811150000001, 0.882188235, 0.9359166999999999, 1.0258833649999999, 1.0628672000000001, 0.98890595, 0.84020134, 0.7103948699999999, 0.6584312149999999, 0.6629864550000001, 0.6632230450000001, 0.62757872, 0.57572297, 0.540778565, 0.514650085, 0.43800382, 0.260625715, 0.0107364010765, -0.21744997000000002, -0.34613458, -0.37875187, -0.39064718499999995, -0.447819195, -0.5352982550000001, -0.57958798, -0.51925139, -0.346902275, -0.123388627, 0.028306111125000002, -0.017024678175000002, -0.26414883, -0.55494497, -0.70234932, -0.646718315, -0.472277925, -0.304997435, -0.21659217000000003, -0.205777745, -0.23186583500000002, -0.255336325, -0.261253365, -0.259383415, -0.26941564, -0.304137355, -0.35526776, -0.39419544500000003, -0.39452879500000004, -0.34952777500000004, -0.266956365, -0.1581419315, -0.040532272089, 0.053672161, 0.09017512800000001, 0.0671515785, 0.0315043235, 0.046606012, 0.1394270545, 0.280188445, 0.4039795, 0.45267059000000004, 0.412117715, 0.319875485, 0.233352685, 0.184039365, 0.16627126, 0.16191182999999998, 0.157584705, 0.148579025, 0.14003365, 0.13881826, 0.138606345, 0.12076567, 0.0807607555, 0.043508511, 0.0356846465, 0.052222691, 0.061294233000000004, 0.0376202435, -0.009990201039, -0.040660745, -0.00982015439, 0.09341163999999999, 0.22431056500000002, 0.30905963, 0.30694866, 0.244491115, 0.18119259, 0.149698405, 0.123788429, 0.047733760255, -0.080418322, -0.19287731, -0.23196009499999998, -0.201005465, -0.133788898, -0.0536506635, 0.02172808919, 0.07094640049999999, 0.0924161395, 0.11149217500000001, 0.13083875, 0.1093760625, 0.028995386915, -0.062185929499999994, -0.10124610799999999, -0.084069219, -0.0674141885, -0.0986093435, -0.162812805, -0.205833125, -0.189837235, -0.11917560699999999, -0.028984688116, 0.035827322, 0.041099018999999994, -0.013113976945000001, -0.0806958085, -0.09747458549999999, -0.04417738525, 0.020941557711, 0.01885778898, -0.06943036949999999, -0.213131725, -0.382217145, -0.534428295, -0.601331745, -0.5489517349999999, -0.41248287, -0.253705745, -0.11872795, -0.0299115238, 0.0135299020585, 0.0308641175, 0.042046375999999996, 0.0551794965, 0.0709062035, 0.08256798500000001, 0.073273643, 0.03352879345, -0.017624567435000002, -0.041274698, -0.00966412647, 0.073057528, 0.1704485, 0.23221858999999997, 0.2306826, 0.18489181999999998, 0.139563165, 0.11792490000000001, 0.1052951225, 0.080215131, 0.05020638, 0.04851138, 0.1015984555, 0.20331546499999997, 0.31152964, 0.371343715, 0.35770672, 0.29663849, 0.23256653, 0.186078795, 0.15602033, 0.14317199, 0.15011634499999998, 0.16816567500000001, 0.183856855, 0.19353483000000002, 0.19979149499999999, 0.197838145, 0.17340196500000002, 0.11603006049999999, 0.030703138819, -0.065638153, -0.154560505, -0.218117485, -0.236620015, -0.203314315, -0.148155205, -0.12957943500000002, -0.18650481500000002, -0.30555058, -0.4335087, -0.51480211, -0.5233975399999999, -0.45463614, -0.308908605, -0.10972744355, 0.08026683586500001, 0.18916059000000002, 0.19240446, 0.1312239075, 0.06425439299999999, 0.015860126224, -0.0160888524, -0.028178698999999998, -0.012000413707, 0.020091040100000002, 0.03236736, 0.0027136213765, -0.0444795595, -0.054196171, 0.00797810033, 0.11455683900000001, 0.18571722499999999, 0.154162145, 0.032269259524999996, -0.0857337845, -0.10031483449999999, -0.001045987945, 0.12057552449999999, 0.16344121, 0.1108600845, 0.027969590125, -0.02058115365, -0.0293538165, -0.0303532385, -0.042714036999999996, -0.0620505995, -0.0862260365, -0.123795395, -0.167366295, -0.17926293000000001, -0.1217348825, -0.0028383338749999997, 0.1170629595, 0.17609292, 0.164290715, 0.12559629, 0.115293885, 0.15985085500000001, 0.242153445, 0.3060352, 0.296683845, 0.20688216, 0.07386544345, -0.0651743103225, -0.20437865500000002, -0.34538312, -0.452202175, -0.46476892999999997, -0.37474536999999997, -0.26155061, -0.21488498499999997, -0.230730985, -0.214123045, -0.08096037057, 0.1504737335, 0.36071454000000003, 0.43557842999999996, 0.383441485, 0.3125001, 0.287429695, 0.250153725, 0.11076414825, -0.10983389581000001, -0.292452845, -0.360536025, -0.342023875, -0.3018436, -0.26729955499999997, -0.22716994, -0.16813322500000003, -0.09341491299999999, -0.017390984255, 0.046414536, 0.0931261885, 0.12989403, 0.173671805, 0.23876329, 0.31820862, 0.37398525499999996, 0.361041005, 0.27358448, 0.154406512, 0.05553954949999999, 0.0017316753785, -0.018612236, -0.0474059545, -0.11995690249999999, -0.19728768, -0.16380154900000002, 0.041354880515000005, 0.30591175, 0.43388388999999994, 0.34138899, 0.1143917959055, -0.08414747095, -0.14752985000000002, -0.116889565, -0.119425215, -0.22570359499999998, -0.38924259, -0.48655141999999996, -0.40441640999999995, -0.14078396563, 0.162771007, 0.34580298, 0.38482529499999996, 0.369044665, 0.358669095, 0.33632007, 0.27133335, 0.17486419, 0.07707112099999999, -0.026557638405, -0.162957996, -0.32551181, -0.45867392, -0.489203925, -0.38078399500000004, -0.1811279765, 0.002174781979, 0.0829527565, 0.0525024755, -0.027156727008499998, -0.0780402745, -0.06746026050000001, -0.0248869558, -0.00062195894985, -0.01290804375, -0.0389193175, -0.044932051, -0.01334934703, 0.041830982499999995, 0.07400915000000001, 0.0429264373, -0.036768023358500004, -0.101810929, -0.095544539, -0.0179340778075, 0.07169637899999999, 0.1036733105, 0.0592048755, -0.012442149605, -0.04269494, -0.016567484945, 0.0114441491, -0.0229517769475, -0.12022479900000001, -0.196135775, -0.146586771, 0.02931268446, 0.187861115, 0.1829926, 0.010297684335, -0.214882635, -0.37033351000000003, -0.41180707, -0.37198381500000005, -0.29654334, -0.20389437000000002, -0.094580306, 0.021385364595, 0.120559643, 0.18708172, 0.219583725, 0.22633921, 0.22039885, 0.20863194, 0.19438112, 0.19190249, 0.217315125, 0.258795335, 0.27524786, 0.243310915, 0.194816985, 0.18702835, 0.237973135, 0.304900365, 0.33439409, 0.322796995, 0.307531755, 0.31407403500000003, 0.33510047, 0.3476424, 0.33203535500000003, 0.27980920000000004, 0.19499764500000002, 0.09830003650000001, 0.01958700374, -0.036972366, -0.10701309549999999, -0.217803155, -0.33764204, -0.40914436000000004, -0.42312278999999997, -0.41441550499999996, -0.397877065, -0.35665181500000004, -0.29095351, -0.23563588, -0.22015956, -0.23085724500000002, -0.22167085, -0.16955507, -0.10881365300000001, -0.09006347849999999, -0.11919139899999999, -0.157493235, -0.16947515, -0.14799234, -0.11145514249999999, -0.10369924850000001, -0.175200615, -0.327772365, -0.49336183499999997, -0.59323802, -0.59375239, -0.503154515, -0.34959387, -0.1682989925, 0.0051689204300000005, 0.138126666, 0.21279567, 0.241533485, 0.26020381, 0.293835695, 0.323941355, 0.299344255, 0.19583084, 0.06234105944999999, -0.009760081415, 0.0323339842465, 0.156421052, 0.280051165, 0.35136901000000004, 0.39114921, 0.45386121, 0.557923725, 0.661121505, 0.700660695, 0.65357472, 0.55514708, 0.45613855999999997, 0.36922697, 0.2705975, 0.151179863, 0.04170020945, -0.02980350596, -0.088430005, -0.184853275, -0.324064045, -0.46402475000000004, -0.56072119, -0.5799324450000001, -0.507564005, -0.38053648500000004, -0.280015695, -0.25838261, -0.287710175, -0.30043786499999997, -0.261512095, -0.19294213500000001, -0.138633005, -0.11356313999999999, -0.10567318, -0.11715111, -0.158729345, -0.211571495, -0.23031741, -0.186075315, -0.09712893299999999, -0.0178185683625, 0.003967040928, -0.0294299242, -0.0667019195, -0.0599325835, -0.0043846747385, 0.076599698, 0.163950955, 0.242428275, 0.291685595, 0.303731045, 0.29715256, 0.301685435, 0.3337181, 0.38634349999999995, 0.44027001, 0.480641395, 0.499561295, 0.49230822, 0.46013921500000005, 0.41570898, 0.37823685500000004, 0.34866664999999997, 0.296413175, 0.19702368499999998, 0.0692221617, -0.047286470585, -0.13271091000000002, -0.18899247, -0.21513706, -0.205809615, -0.17896012500000003, -0.17929717499999998, -0.23322279, -0.308606325, -0.338731595, -0.291281735, -0.202755775, -0.138599175, -0.130973225, -0.15983946, -0.17923748499999997, -0.15685167, -0.1026113655, -0.0665774915, -0.102482786, -0.21499174, -0.33931453, -0.3995615, -0.38596841499999995, -0.34052783, -0.293313135, -0.251076945, -0.22760111500000002, -0.237791105, -0.26358818, -0.270160405, -0.25041841000000004, -0.2226265, -0.194690965, -0.15666202, -0.1003263645, -0.02452613705, 0.0722923925, 0.17864425, 0.24659836, 0.22041117, 0.11388801300000001, 0.0265855615, 0.0495122935, 0.16792395, 0.28151757499999996, 0.31085567999999997, 0.27134165, 0.24296353, 0.27180195, 0.32021206999999996, 0.31901384, 0.24201713000000002, 0.1112739415, -0.031439255915, -0.1306364375, -0.151796185, -0.13053098999999999, -0.134423755, -0.17243197500000002, -0.184466815, -0.12245290199999999, -0.00649155833, 0.11143916150000001, 0.20921696, 0.292841355, 0.360292855, 0.39770926500000003, 0.39733291000000004, 0.35474512500000005, 0.27047039500000003, 0.17749594500000002, 0.13742872, 0.185979875, 0.28844481, 0.3626892, 0.351586045, 0.27021328, 0.17945139000000002, 0.119275584, 0.078565073, 0.0252697619, -0.0531331505, -0.1420775555, -0.21212799000000002, -0.231932185, -0.18829581, -0.111705457, -0.069941408, -0.104827383, -0.17872481499999998, -0.21647044999999998, -0.19467521999999998, -0.159305995, -0.16449403499999998, -0.21431108999999998, -0.259489645, -0.24678030499999998, -0.16881894500000003, -0.06544167299999999, 0.015132933344999999, 0.0543119895, 0.0673277155, 0.0757046265, 0.080583839, 0.058513345, -0.018554493595, -0.1495252325, -0.287386125, -0.367660985, -0.356742195, -0.263416595, -0.12157257449999999, 0.018424905995, 0.1042539515, 0.1135974225, 0.0685003855, 0.010305689847499999, -0.036753288999999995, -0.076431023, -0.1222762345, -0.179260445, -0.242375535, -0.29831761, -0.32646447, -0.30819588, -0.23656048500000001, -0.125804618, -0.013143007655, 0.0633057065, 0.09116436350000001, 0.07877506549999999, 0.032835791545, -0.035714258635, -0.0916457275, -0.090520596, -0.02074218966, 0.07964484399999999, 0.16015379, 0.20887060999999998, 0.25135079, 0.303245735, 0.344706265, 0.347601545, 0.315194395, 0.27976268, 0.265402285, 0.26556931500000003, 0.25598188499999996, 0.22329747, 0.17935106, 0.149593075, 0.14773357, 0.160657885, 0.156984135, 0.11330353750000001, 0.0395973054, -0.0231707706705, -0.0363744785, 0.00403102308795, 0.064375265, 0.09785137649999999, 0.079289756, 0.025185665127, -0.0236192928, -0.045080066, -0.056845917, -0.0866243485, -0.130141545, -0.156457695, -0.151832685, -0.13458768499999998, -0.13100232, -0.15602339499999998, -0.20132145999999998, -0.23453421, -0.227905825, -0.18763876499999999, -0.148686015, -0.14143869, -0.16184422, -0.177936135, -0.17250189999999999, -0.16159052, -0.16550032, -0.18246237, -0.18836227, -0.153972675, -0.0841012645, -0.027250918, -0.0158646675, -0.0271031975, -0.01958741705, 0.019038784580000002, 0.0728579505, 0.1270656, 0.18071072999999999, 0.23355823999999997, 0.274094875, 0.28971701, 0.281229945, 0.258334875, 0.234506795, 0.22679196499999998, 0.246030605, 0.283123815, 0.30646479499999996, 0.281017595, 0.19570257000000002, 0.0698061417, -0.059212807745000005, -0.1488302, -0.17099989499999999, -0.13239494000000002, -0.0731423965, -0.0346796695, -0.0265741035, -0.030688068500000002, -0.029845676499999998, -0.020418408000000002, -0.0076612525, -0.00583293055, -0.0338626275, -0.095988167, -0.17163598, -0.22908968500000002, -0.245149175, -0.21769403, -0.162013785, -0.09228169, -0.010862436775, 0.08584207299999999, 0.186450495, 0.247582, 0.21899268, 0.0957891485, -0.062021995791549996, -0.17159637, -0.198389955, -0.17877321999999998, -0.166566085, -0.17519628, -0.18324300999999998, -0.17511152, -0.155939615, -0.13965979, -0.139836595, -0.16242386, -0.191170935, -0.18335204000000002, -0.103814801, 0.01795789604, 0.09143728649999999, 0.05816059, -0.042958156275, -0.1225921585, -0.13132975, -0.0931015695, -0.063641987, -0.0630956225, -0.0464066645, 0.0480570131335, 0.2157213, 0.37208091000000004, 0.421136195, 0.33664901999999997, 0.195696925, 0.120748165, 0.16982787500000002, 0.29435640500000004, 0.39183941, 0.38640203999999995, 0.28594649, 0.177699775, 0.14349601, 0.186081425, 0.25241682, 0.280820105, 0.22549009, 0.084762360365, -0.0864362704, -0.21421602, -0.26818469, -0.26363914, -0.21589934, -0.140388325, -0.081721654, -0.0908582045, -0.16296835, -0.22215151, -0.19362737, -0.08522059950000001, 0.022803137050000002, 0.0593592445, 0.016840163195, -0.066759939, -0.153510595, -0.22383619, -0.26661763, -0.27298201, -0.243244115, -0.188611945, -0.12457829150000001, -0.06521895800000001, -0.018185417674, 0.01850740905, 0.0523049765, 0.0822864205, 0.0907420675, 0.0643424, 0.0307712585, 0.050053138, 0.13475452000000002, 0.205612075, 0.181310015, 0.078663068, -0.0090309311665, -0.010330093966, 0.0646520925], [-0.20337145, -0.37157452, -0.452635865, -0.41595478999999996, -0.306244805, -0.196318795, -0.13570133, -0.131487985, -0.16322568, -0.20238095, -0.21930521, -0.198778435, -0.162709225, -0.16032907000000002, -0.21796059, -0.303978895, -0.3521323, -0.31812228000000004, -0.211312225, -0.0794935175, 0.0258742231444, 0.0730541415, 0.058534568499999995, 0.009322982685, -0.028215929, -0.0219669259, 0.0214819982775, 0.0713799225, 0.0960127975, 0.0699058255, -0.005894489795, -0.0882807175, -0.12704478, -0.11930434, -0.11467572000000001, -0.16099928500000002, -0.25397037, -0.338104815, -0.34758861500000005, -0.25348789499999996, -0.08624774351999999, 0.0884917521, 0.21744631000000003, 0.28382873, 0.304320355, 0.315116075, 0.34436086000000005, 0.38448115, 0.39140735499999996, 0.32097305499999995, 0.18610878499999997, 0.0783636415, 0.102032718, 0.26501442999999997, 0.45098836499999995, 0.516468355, 0.41195861, 0.2137181, 0.04992474295, -0.0014914770804999998, 0.041493099, 0.099018674, 0.1000125915, 0.03452347562, -0.039179424250000004, -0.0399864705, 0.058536198698, 0.192592455, 0.26517868499999997, 0.21900023000000002, 0.057250870144999993, -0.15732774900000002, -0.32747886000000004, -0.38549832, -0.339083805, -0.241365895, -0.127408559, 0.00048671201000000027, 0.1359897675, 0.24445580499999997, 0.28659564, 0.26140695999999997, 0.21436807000000002, 0.193407415, 0.196889855, 0.177347865, 0.100566711, -0.01555951541, -0.12325386399999999, -0.185827505, -0.194003065, -0.160109115, -0.1066671335, -0.0589675095, -0.038334258, -0.052982024499999995, -0.096362458, -0.1510903, -0.189938255, -0.19159727000000001, -0.16857269500000002, -0.1623611, -0.20006665, -0.264293365, -0.308240415, -0.29828314, -0.24251983, -0.176042005, -0.122243975, -0.0831995625, -0.0668085185, -0.10181896, -0.21397627, -0.39213783999999996, -0.57791259, -0.6899061249999999, -0.669709595, -0.5149708199999999, -0.274763145, -0.021613872340000003, 0.1782868965, 0.28790748, 0.303972735, 0.244247375, 0.13197994700000001, -0.004388439305, -0.124550311, -0.19645957, -0.240820865, -0.31425675999999997, -0.376649365, -0.20538061072000002, 0.39320977999999995, 1.195487055, 1.6091585499999999, 1.3382198, 0.7081397800000001, 0.208800862, 0.025080193, 0.042077292, 0.09163259650000001, 0.1034245825, 0.090924464, 0.079127981, 0.068408513, 0.047418469500000004, 0.01760137125, -0.0040271886605, -0.001895805051, 0.024029784250000002, 0.057027547, 0.0725496195, 0.0468173055, -0.03363241833, -0.14844810349999998, -0.235318575, -0.23205017000000003, -0.130787379, 0.019370401575, 0.1515286055, 0.21898755, 0.213066575, 0.161038465, 0.112013825, 0.11188891999999999, 0.16739779999999999, 0.231669235, 0.24251853, 0.18020655000000002, 0.077493742, -0.018636295285, -0.0795753895, -0.10467457899999999, -0.110720475, -0.1131192, -0.12140817, -0.14348474, -0.18556346999999998, -0.24915996499999998, -0.327417, -0.40102156, -0.43742359000000003, -0.412143725, -0.33530867999999997, -0.237318985, -0.1347712395, -0.034329122112, 0.049384697500000005, 0.1035326865, 0.134264695, 0.15586369, 0.165880235, 0.15114522, 0.11702955100000001, 0.085205263, 0.051519424, -0.016873161459999998, -0.120179662, -0.2058477, -0.22809276, -0.185978915, -0.101555489, 0.0004215535399999999, 0.088029165, 0.125306525, 0.102059841, 0.052369759, 0.013094595871500001, -0.021913161400000002, -0.07275300450000001, -0.12636728, -0.147349835, -0.115596071, -0.040270947979, 0.047936176000000004, 0.112406714, 0.130412265, 0.113923995, 0.10768814, 0.138462355, 0.168401475, 0.1323701135, 0.024091865295, -0.09084730199999999, -0.15528608500000002, -0.17024234, -0.155912855, -0.116980928, -0.060988236, -0.0022545906965, 0.054490081999999995, 0.11012886999999999, 0.154623405, 0.16495014000000002, 0.12322203, 0.0399920685415, -0.0445178502, -0.0941720175, -0.10651961500000001, -0.0943551325, -0.055383292, 0.020493132543, 0.12109371899999999, 0.21436242, 0.27850257, 0.30433733, 0.27943886500000004, 0.19365732000000002, 0.060555581515, -0.0849249735, -0.208625905, -0.28761465, -0.31090476, -0.27452573999999996, -0.18391952, -0.0714157855, -0.0003615510945, -0.0269319634005, -0.144899828, -0.29138507, -0.426798625, -0.586685715, -0.80519839, -0.956832185, -0.750169635, -0.04684008415, 0.7975127999999999, 1.18103755, 0.938286055, 0.46571094, 0.18646184999999998, 0.18489584, 0.311829505, 0.41187834, 0.420551455, 0.344075475, 0.21285656500000003, 0.06895982985, -0.04099020097, -0.0921734485, -0.100681625, -0.10972900499999999, -0.14817054000000002, -0.20030978000000002, -0.222815595, -0.19313174, -0.1295428445, -0.0596736725, 0.00679689035, 0.066320976, 0.10752600749999999, 0.126414955, 0.14374988, 0.188181245, 0.2654197, 0.35315656500000003, 0.41979337, 0.43280726999999997, 0.36826516499999995, 0.24397265499999998, 0.12169843450000001, 0.0501437225, 0.0248582495, 0.017484031, 0.0161571135, 0.02666494, 0.054706196, 0.090786035, 0.1058915425, 0.0750705395, 0.007769595904999999, -0.0715707505, -0.16339878500000002, -0.28567356, -0.43029515500000004, -0.554526855, -0.6211754700000001, -0.62105144, -0.557731745, -0.437389235, -0.282731825, -0.14319703849999998, -0.074351047, -0.09432243850000001, -0.16534890000000002, -0.22814926, -0.24956541999999998, -0.235381915, -0.20829206, -0.181212925, -0.152297095, -0.117186278, -0.0758454875, -0.032786941, 0.0014118954505, 0.0188531325, 0.036498274500000004, 0.0892933345, 0.169150575, 0.20410357999999998, 0.1357647435, -0.005987179722, -0.12138690950000001, -0.133501425, -0.0562515019, 0.0416993258075, 0.1142120665, 0.154975685, 0.1722737, 0.175363855, 0.17559684, 0.18623085499999997, 0.222961195, 0.29911368, 0.39519477000000003, 0.442865545, 0.384016295, 0.24368011, 0.11306339550000001, 0.060165632999999996, 0.073460121, 0.102752898, 0.12124751, 0.122904335, 0.1048496305, 0.08167334500000001, 0.08239125400000001, 0.10997878, 0.13630206, 0.145160415, 0.147647615, 0.157548195, 0.1736973, 0.189552375, 0.20654516, 0.220939425, 0.216764265, 0.191761, 0.16435697000000002, 0.14541822999999998, 0.125624705, 0.08776576450000001, 0.017126062595, -0.08175263199999999, -0.17250822500000002, -0.21889378, -0.23545622000000002, -0.27506332499999997, -0.36414617499999996, -0.47465448000000005, -0.558670845, -0.6070681, -0.66465973, -0.76789818, -0.87582686, -0.89568259, -0.78640913, -0.599819455, -0.39883836, -0.1918275905, 0.02807912793, 0.228374415, 0.34520546500000004, 0.33039491499999996, 0.20523333000000002, 0.076487979, 0.056272401500000006, 0.1491243565, 0.257274405, 0.29959984500000003, 0.27884471, 0.240354685, 0.21024698, 0.180296655, 0.13638871, 0.09080501249999999, 0.0711924855, 0.084589683, 0.1114324615, 0.12950651000000002, 0.132141905, 0.12739588, 0.12984854, 0.16085069000000002, 0.22837367, 0.299364815, 0.31919536, 0.26293026, 0.156100336, 0.04962936885, -0.0138313175385, -0.010858074984999999, 0.061356429500000004, 0.178720055, 0.29511536, 0.34924031, 0.284734865, 0.10708782613500001, -0.09753874785000001, -0.23280039, -0.277141675, -0.291890985, -0.34984304, -0.458568875, -0.5597556699999999, -0.59283036, -0.53440066, -0.391038435, -0.1903679515, 0.01657105554, 0.161784, 0.19329760499999998, 0.124942894, 0.0408002135, 0.0249088175, 0.097334614, 0.21558395, 0.315169305, 0.35797544000000003, 0.34974444, 0.31207245, 0.25824812, 0.19116110500000003, 0.10991169449999999, 0.020416541845, -0.064322368, -0.13450545, -0.185174485, -0.20779492000000002, -0.18984035, -0.12921812600000002, -0.0503372115, 0.006262726439, 0.0207754225, 0.005423994682, -0.024461479100000003, -0.060837836000000006, -0.0823606105, -0.06536786850000001, -0.0179886985105, 0.0372570331, 0.1192403955, 0.27696080500000003, 0.495800305, 0.672651825, 0.7161546599999999, 0.61924472, 0.43448662499999996, 0.22851239499999998, 0.055851312922999996, -0.059421257, -0.12419179500000001, -0.15182645, -0.144821725, -0.1069412895, -0.064765775, -0.063103621, -0.127040785, -0.231616315, -0.323251355, -0.37702515, -0.409658975, -0.43417126000000006, -0.44221536499999997, -0.42972662, -0.40948778500000005, -0.401305765, -0.41640727, -0.44641355, -0.46810059000000004, -0.455437565, -0.38850995, -0.26386202000000003, -0.10018325750000001, 0.071294768355, 0.22114455, 0.316183165, 0.314150475, 0.196243645, -0.00498828697, -0.223739195, -0.39137069500000005, -0.45578255, -0.411637035, -0.31931176, -0.259536145, -0.261851485, -0.28984631499999997, -0.289880175, -0.24176681, -0.16996088499999998, -0.1089679415, -0.057285577, 0.0213606455285, 0.1567223755, 0.345057525, 0.558881545, 0.76400233, 0.924587075, 1.014783725, 1.03417635, 1.00279888, 0.937152335, 0.840013075, 0.7166968850000001, 0.583045875, 0.450454315, 0.318545555, 0.191432875, 0.090041312, 0.0326538865, 0.01155681575, 0.0074716381, 0.01824475385, 0.0444135655, 0.056337403, 0.0161836835245, -0.0742816355, -0.173112335, -0.24159811, -0.283464145, -0.335978135, -0.412914155, -0.46696761999999997, -0.438070685, -0.327491185, -0.193530835, -0.09684942599999999, -0.060769330999999996, -0.0627265715, -0.0670606155, -0.07038876300000001, -0.092370945, -0.109582295, -0.0655651755, 0.039157012195, 0.1396645, 0.18411063, 0.170640335, 0.1140048715, 0.017927236685, -0.10444689350000001, -0.210051575, -0.254569115, -0.24301832, -0.228949025, -0.2529026, -0.29285260999999996, -0.28250721, -0.183167595, -0.03368680635, 0.083197718, 0.108280511, 0.042311202935, -0.068768459, -0.178627495, -0.267771005, -0.33537031, -0.379242945, -0.39118718999999996, -0.36968984499999996, -0.332018145, -0.30416166, -0.29061997500000003, -0.258372155, -0.15991173849999998, 0.01347623037, 0.19335505, 0.27900444, 0.23378765, 0.1102534145, -0.014171874689999999, -0.097904123, -0.12917981, -0.102133506, -0.03094452928, 0.04181804945, 0.08613036149999999, 0.111805033, 0.143696465, 0.194390205, 0.262608995, 0.34699357, 0.448337765, 0.550790935, 0.615545435, 0.61017094, 0.5411921749999999, 0.44855225, 0.365750745, 0.28740757, 0.18125522, 0.033907185, -0.1250306545, -0.248934425, -0.30698130500000004, -0.287059075, -0.19063638000000002, -0.035839917626, 0.140223564, 0.28216254, 0.333190125, 0.266969055, 0.1102822005, -0.05854672666, -0.145269085, -0.117808332, -0.066125919, -0.123132807, -0.304114705, -0.47899700500000003, -0.50831603, -0.374370235, -0.17769586950000002, -0.035039131605500005, 0.00681751863045, -0.020094059034999997, -0.0535096265, -0.0554590305, -0.0339823515, -0.0217173185, -0.036656841, -0.0619966915, -0.057746120000000005, 0.007166051364, 0.12707138799999998, 0.25506759500000004, 0.33257843000000004, 0.337676745, 0.29953757, 0.26045469, 0.23610186, 0.21530317, 0.18171370499999998, 0.131348325, 0.076079407, 0.034570628, 0.018748864, 0.028402774000000002, 0.061456234, 0.12532038099999998, 0.22410897500000002, 0.32447459500000003, 0.35838802999999997, 0.2865005, 0.144688339, 0.01636853899, -0.039077326499999995, -0.0399001285, -0.055088793999999996, -0.11291465949999999, -0.170660915, -0.179525195, -0.149285745, -0.133227015, -0.173734, -0.27448808, -0.400338035, -0.49320366, -0.5040893, -0.43486986, -0.35199008499999995, -0.328429745, -0.3569625, -0.3698194, -0.36356133, -0.416125535, -0.5793486800000001, -0.831114995, -1.114862865, -1.3761412, -1.5673157, -1.6448238499999999, -1.5701918000000001, -1.32092945, -0.9077315699999999, -0.38117379, 0.1806624093, 0.697113865, 1.1101836, 1.3929712, 1.54313335, 1.5809208000000001, 1.5497880499999999, 1.5034121999999999, 1.4702412, 1.4234733, 1.3226447, 1.18116575, 1.035393185, 0.8866323199999999, 0.7174179150000001, 0.53469597, 0.371908605, 0.255802935, 0.17847649000000002, 0.106794038, 0.0214984253985, -0.06570055250000001, -0.13468719, -0.18078185000000002, -0.219739045, -0.276937115, -0.357141545, -0.41150218000000005, -0.35146547, -0.14683022299999998, 0.08758165052500001, 0.180958385, 0.0889089649, -0.076380757785, -0.18953096, -0.228657535, -0.25548240499999997, -0.32443218, -0.423584415, -0.49455675, -0.496857495, -0.442549625, -0.372122985, -0.3070321, -0.23350292499999997, -0.1355083875, -0.0318137991641, 0.031583310999999996, 0.02129831332, -0.04993924575, -0.124013791, -0.14393546000000002, -0.108751476, -0.0684323235, -0.0596034285, -0.0711554535, -0.0751751025, -0.0594410175, -0.027783163000000003, 0.00037148381699999997, -0.012298473539000002, -0.092347266, -0.200544775, -0.228047835, -0.10447573959999999, 0.082335759295, 0.15662671, 0.069150641547, -0.07192261714999999, -0.17710752500000002, -0.244059895, -0.2850104, -0.29246613, -0.271302165, -0.24726114500000002, -0.23246925499999999, -0.2052091, -0.1305973885, 0.00516555495, 0.179266276, 0.34313989999999994, 0.44813177000000004, 0.47224434000000004, 0.436420475, 0.38691709, 0.346830115, 0.29863929, 0.22620389, 0.14533839, 0.082145519, 0.048791276999999994, 0.0480472575, 0.08024439900000001, 0.139644195, 0.2042706, 0.233417405, 0.20317143999999998, 0.14524288999999999, 0.11154324, 0.110874215, 0.109008419, 0.0768433565, 0.010712122757, -0.08973985400000001, -0.22206115, -0.34637235, -0.38758125499999996, -0.29620723000000004, -0.0979473486587, 0.122390655, 0.281155905, 0.33762866, 0.2935876, 0.178645015, 0.038058338125, -0.079797445, -0.146006215, -0.16936, -0.178503395, -0.179458905, -0.143839735, -0.061667789, 0.016041210015, 0.035095872, -0.00038446164000000005, -0.055526633, -0.1184868925, -0.19587294, -0.26928716999999996, -0.284001895, -0.2059986, -0.075745468, 0.0245800364955, 0.0378821205, -0.0416222884815, -0.17582352499999998, -0.29989349, -0.359549215, -0.353735515, -0.32671502500000005, -0.30306287, -0.25994159, -0.182365595, -0.109927159, -0.0989484765, -0.14898519, -0.19264973999999999, -0.163677865, -0.0623211487, 0.05611056735, 0.14673918500000002, 0.213196775, 0.28558536, 0.37708758000000003, 0.47126751, 0.5482689, 0.607017985, 0.6470376849999999, 0.639567895, 0.55318418, 0.41125703, 0.27460505, 0.17501028999999999, 0.10842394999999999, 0.0795257605, 0.109154903, 0.192323095, 0.28209625, 0.32752913499999997, 0.307767075, 0.22423216, 0.08779170604999999, -0.07285100722, -0.21610218, -0.31665628, -0.37500335, -0.39466279, -0.36634876, -0.28213219500000003, -0.1572610055, -0.029512546335, 0.0602591285, 0.0909984315, 0.081090626, 0.0772779525, 0.09450908849999999, 0.07786451, -0.020178440645000004, -0.1428932, -0.18077352000000002, -0.110013513, -0.028245744, -0.0445181235, -0.17806543300000002, -0.36486915000000003, -0.522091885, -0.594476855, -0.56820549, -0.469803995, -0.345952915, -0.236281745, -0.15897503500000001, -0.10651602499999999, -0.0535608825, 0.017462308285000002, 0.098367438, 0.169974005, 0.22550903000000003, 0.265828705, 0.28090741999999996, 0.25771608, 0.20969974, 0.18491382, 0.231340635, 0.335083405, 0.40880347499999997, 0.373286575, 0.23373347500000002, 0.05597096797, -0.105636624, -0.233945035, -0.32708212000000003, -0.386221885, -0.41875160499999997, -0.425427325, -0.387099835, -0.281989445, -0.1297864795, -0.0146443543895, -0.032287895379, -0.1878522195, -0.368918905, -0.43485134999999997, -0.32508329, -0.10164268121999999, 0.08945952800000001, 0.125029781, 0.0079879307805, -0.1448677225, -0.20561203500000003, -0.1106430285, 0.129508096285, 0.44935902, 0.757070495, 0.975121, 1.0609004, 0.99337171, 0.785807135, 0.51877017, 0.30040522, 0.175405025, 0.1031933095, 0.02322808779255, -0.0846632365, -0.193986055, -0.255547475, -0.22992749499999998, -0.11673115049999999, 0.037327679159999995, 0.15836161499999998, 0.18720946000000002, 0.11999833600000001, 0.013239825525, -0.056903911, -0.054525021, -0.010921910545, 0.008168753470549999, -0.0384208645, -0.13605448, -0.229129445, -0.261837785, -0.21829727, -0.1341902945, -0.0697859255, -0.066548755, -0.120932105, -0.1952591, -0.24804341000000002, -0.25470301, -0.21348286000000002, -0.141931875, -0.07001421299999999, -0.026316639, -0.0229359735, -0.056793617000000005, -0.1171069155, -0.18567684499999998, -0.24701294000000001, -0.311229025, -0.40204237499999995, -0.49948108500000005, -0.52560907, -0.42195613000000004, -0.227718435, -0.043857744985, 0.08219403550000001, 0.18933352, 0.300825925, 0.360599315, 0.31089862, 0.17516536, 0.041600427025000004, -0.01537787395], [-0.6787957849999999, -0.8273212, -0.841638235, -0.72126505, -0.61033994, -0.623977455, -0.712647945, -0.710679535, -0.489798035, -0.05880053700499999, 0.42202004000000004, 0.71733913, 0.677490325, 0.37126391499999994, 0.044662348055, -0.1184186945, -0.158885425, -0.20119251, -0.25449029500000003, -0.232728365, -0.100122657, 0.062540614361, 0.12543768, 0.026258290139999998, -0.1723069435, -0.33369735, -0.363861215, -0.28047601499999997, -0.173626985, -0.11956210499999999, -0.133930045, -0.18112005499999997, -0.20146613500000002, -0.1402659445, 0.012020512095, 0.197725695, 0.33378301, 0.377565205, 0.344492735, 0.28046572000000003, 0.23281744499999998, 0.232309865, 0.26659669, 0.269863825, 0.18839819, 0.06052781225000001, -0.032129090095, -0.08833386150000001, -0.186217405, -0.35365951, -0.50251717, -0.5139152450000001, -0.36342631500000006, -0.1459885055, 0.011830141819999999, 0.051551048, -0.0072806973060000005, -0.1207100835, -0.230028555, -0.24069185999999998, -0.074330484375, 0.224304515, 0.47161786499999997, 0.46843194, 0.14805478135, -0.35468288049999996, -0.755905295, -0.803234015, -0.47330743499999994, 0.012184788689999998, 0.39381795500000005, 0.5756299, 0.625724865, 0.643938725, 0.6627465650000001, 0.6549946649999999, 0.61213214, 0.594948935, 0.6742980849999999, 0.82446466, 0.9182629400000001, 0.856096105, 0.66749683, 0.46656426, 0.34492839000000003, 0.31159712500000003, 0.31448992, 0.30058263, 0.24589433, 0.15094193, 0.041477962912999995, -0.0409921002, -0.080224008, -0.0911516935, -0.07493145799999999, -0.023865664241000003, 0.01634957495, -0.046464635691, -0.22597812, -0.38181813499999995, -0.365837395, -0.22700564499999998, -0.16226142500000001, -0.2760358, -0.49235159, -0.6779472649999999, -0.77346606, -0.8142318749999999, -0.85771032, -0.91799564, -0.9681815949999999, -0.9755762099999999, -0.9285908399999999, -0.849582595, -0.7811491049999999, -0.755878385, -0.7755041249999999, -0.79782016, -0.760969405, -0.633794815, -0.43597573500000003, -0.20921988800000002, 0.02238320688, 0.25953208499999997, 0.5049103699999999, 0.720194675, 0.80547545, 0.6930737650000001, 0.4546844, 0.258380865, 0.21236815, 0.255921375, 0.23787617, 0.1210271225, 0.0322494235, 0.104745194, 0.326358215, 0.54519219, 0.616058255, 0.53855783, 0.441331615, 0.431295425, 0.49140437, 0.5547563, 0.6212337649999999, 0.730436345, 0.863596795, 0.95587564, 0.97856123, 0.948715925, 0.9016058, 0.86928978, 0.8346929350000001, 0.72910129, 0.51709208, 0.270874295, 0.11941318499999999, 0.08717332450000001, 0.0454485788465, -0.128861084, -0.42788287500000005, -0.72550343, -0.8709534800000001, -0.814809235, -0.6491640750000001, -0.505686975, -0.42727915000000005, -0.38617812, -0.38169304, -0.44915507, -0.591572415, -0.7562028949999999, -0.88257796, -0.9355792350000001, -0.8972275449999999, -0.77058024, -0.5927808, -0.42619991, -0.320757915, -0.283877105, -0.30133866000000004, -0.37960589, -0.542986815, -0.7732421599999999, -0.96032051, -0.95404693, -0.707046845, -0.35429332, -0.0959999795, -0.0172546505, -0.077529241, -0.20081542, -0.312264865, -0.34633633, -0.24714713, 0.025769499425000002, 0.43204769499999995, 0.80775848, 0.97743708, 0.909606045, 0.71131675, 0.50318977, 0.353778035, 0.307022835, 0.397215745, 0.61496255, 0.879217025, 1.078242945, 1.15869905, 1.13711085, 1.06572445, 1.01464705, 1.0270583, 1.082301, 1.1182616, 1.0799513, 0.942490905, 0.705513385, 0.39927278, 0.07799130857935001, -0.2192912045, -0.487881305, -0.7530755499999999, -1.020117015, -1.2274524, -1.29648345, -1.22248625, -1.07913855, -0.94439144, -0.848391025, -0.773918475, -0.68921405, -0.57858055, -0.44831673, -0.315119805, -0.192642125, -0.09017991500000001, -0.012415634003, 0.055901087, 0.154983232, 0.305880335, 0.46172635999999995, 0.5444085, 0.541185515, 0.51615564, 0.484224655, 0.35708531, 0.10763444121499999, -0.104916135, -0.074708043805, 0.2129139725, 0.55478018, 0.724229565, 0.63438179, 0.357150605, 0.054723798585000004, -0.11613580750000001, -0.10190081299999999, 0.0243326676535, 0.14781596949999998, 0.17663138499999997, 0.052792282515000004, -0.2075148475, -0.48026945, -0.61880336, -0.6096210400000001, -0.58302825, -0.633531785, -0.68239084, -0.596976085, -0.41186145, -0.302942895, -0.385823775, -0.6296827700000001, -0.9226375299999999, -1.16728475, -1.3073400499999999, -1.2774292, -1.000817795, -0.515889315, -0.03397331705, 0.237063095, 0.29003691, 0.262907535, 0.25267066, 0.295017985, 0.43531579, 0.69315938, 0.986411235, 1.16951665, 1.15562885, 0.96592388, 0.7007699150000001, 0.48910035, 0.40489337, 0.407139265, 0.39586711999999996, 0.35175374, 0.37735928, 0.524361555, 0.666718135, 0.65775022, 0.53123953, 0.455065655, 0.51792434, 0.63771298, 0.68205095, 0.60666458, 0.45212399499999995, 0.2605569, 0.04023574488000001, -0.18563647, -0.331685, -0.304007465, -0.11013899975755001, 0.1191188915, 0.23144792, 0.1628300415, -0.03168655445, -0.22336621999999998, -0.30873234, -0.28738537999999997, -0.24150443500000002, -0.24983602000000002, -0.326221735, -0.43150604000000004, -0.52754207, -0.60537578, -0.66841484, -0.720048125, -0.770905895, -0.82937354, -0.88239552, -0.896289465, -0.85351716, -0.789665595, -0.75924504, -0.763923475, -0.747167375, -0.661756965, -0.5178438599999999, -0.366335485, -0.24771743499999999, -0.151529045, -0.0502464429, 0.027366171430000003, -0.011175536600000001, -0.2304329285, -0.55369631, -0.76021023, -0.649293735, -0.22032512863, 0.33421999900000005, 0.7790782749999999, 0.9366955950000001, 0.74250451, 0.32711725999999997, 0.013595272144999998, 0.10486689114, 0.600546165, 1.12822101, 1.2508808, 0.87959329, 0.31916254250000003, -0.027331856600000003, 0.04741131187, 0.446599305, 0.864286905, 1.0405811, 0.9851414049999999, 0.910887865, 0.9729353000000001, 1.13772445, 1.2436573, 1.15626615, 0.9142884050000001, 0.6963944750000001, 0.6038842799999999, 0.5603888, 0.454167245, 0.274437035, 0.0910236635, -0.04180990179, -0.1259040115, -0.169675285, -0.14609295, -0.05524828849999999, -0.014968176150000002, -0.18399024700000002, -0.55981013, -0.97688739, -1.3283939, -1.6152296999999998, -1.7864312, -1.73115945, -1.4570124000000002, -1.1336772499999999, -0.91853195, -0.8135526, -0.710802585, -0.5239007800000001, -0.26006901, -0.003192213425, 0.17607572999999999, 0.26552446, 0.27461793, 0.21324881999999998, 0.1043501085, -0.005640076724999999, -0.056893146000000006, 0.0048401955249000005, 0.1954003325, 0.44465952000000003, 0.6074345, 0.57436372, 0.3600655, 0.060399978709999996, -0.191442272, -0.2357292, -0.019042950540000003, 0.28502799, 0.40695631499999996, 0.252645265, 0.001955510155, -0.087506736, 0.03722405473, 0.20134188000000003, 0.245507125, 0.19596270000000002, 0.172092925, 0.18256962000000002, 0.08932634475000001, -0.21299001650000002, -0.62560418, -0.8951811700000001, -0.8474277100000001, -0.5341425799999999, -0.157933171275, 0.10547962679999999, 0.192516735, 0.1297334395, 0.004670298890000001, -0.066749293, -0.032730917600499995, 0.03480828135, 0.053340598, 0.049448742000000004, 0.09162113599999999, 0.17021559, 0.19520312, 0.125550008, 0.0559069195, 0.103479137, 0.26302281, 0.41374119, 0.458410855, 0.41877437, 0.37395102999999996, 0.35696261999999995, 0.330985175, 0.259177985, 0.18377517000000002, 0.177634815, 0.23441879, 0.27287730499999996, 0.22585824, 0.08499216887, -0.0887592849, -0.17099342, -0.06486615213500001, 0.184372605, 0.408475425, 0.484036525, 0.44592796, 0.376943895, 0.26162805, 0.0515968063309, -0.1887211275, -0.327524105, -0.330392315, -0.26303736, -0.182330545, -0.12112136, -0.11988255, -0.182600325, -0.24630683, -0.26269236, -0.249038175, -0.23076911, -0.22173949499999998, -0.260976685, -0.39297282, -0.5932996, -0.76534457, -0.824024675, -0.7402751200000001, -0.5448530699999999, -0.34437713999999997, -0.26438995, -0.296099195, -0.25936014, -0.009789153655, 0.35096748499999997, 0.5552437849999999, 0.45587891999999997, 0.16375978100000002, -0.10230447402899999, -0.19824631, -0.09929863555000001, 0.103524543445, 0.270274295, 0.31704019, 0.24335137499999998, 0.093834697, -0.05977593895, -0.1104927425, 0.04813906266, 0.409563615, 0.75927548, 0.80814594, 0.511133935, 0.1439056485, -0.024208115305, -0.0321441535, -0.093303571, -0.254102995, -0.34115831, -0.2084972475, 0.076900640984, 0.309302815, 0.359807525, 0.282651315, 0.229728695, 0.28747765999999997, 0.40890237, 0.49460759000000004, 0.506235385, 0.47394070499999996, 0.41553964, 0.309895955, 0.16336135599999999, 0.0455625915, 0.017776456, 0.054127738499999994, 0.0784037525, 0.052020102, -0.030413754175, -0.184781867, -0.39612994, -0.5783489500000001, -0.64263462, -0.5984419599999999, -0.548944945, -0.570891185, -0.63317351, -0.648394255, -0.59000796, -0.536311075, -0.57574457, -0.670844215, -0.6652834400000001, -0.450365925, -0.09358146066, 0.20780397, 0.29644451499999996, 0.17317721949999998, -0.027027961205, -0.14820899499999998, -0.130493507, -0.041586817633, 0.02522986112, 0.0358967145, -0.034621878732, -0.20206692499999998, -0.35458255, -0.29860743, 0.00422560732, 0.36779639000000003, 0.58277704, 0.59616794, 0.496487955, 0.407183, 0.39697039500000003, 0.44028309, 0.456408375, 0.40896863000000006, 0.361729835, 0.41514593499999997, 0.591586105, 0.8032561, 0.9270007149999999, 0.8984945000000001, 0.74445417, 0.547850465, 0.39651363000000006, 0.344995075, 0.38771188, 0.45727594000000005, 0.47138018000000004, 0.39086435, 0.22881992, 0.02377642824, -0.177712292, -0.325329335, -0.39949313, -0.46549058000000004, -0.615383655, -0.8227167950000001, -0.9637294799999999, -0.9815888850000001, -0.9235074799999999, -0.871260705, -0.9272928149999999, -1.16323365, -1.4817063, -1.65393675, -1.5322909000000002, -1.1399214, -0.62089582, -0.152882922145, 0.157608025, 0.32933275500000003, 0.43877041, 0.502888545, 0.471791535, 0.350275385, 0.276226115, 0.415934115, 0.7757535900000001, 1.16271973, 1.34606135, 1.2260246, 0.84915423, 0.33618199, -0.1535535457, -0.43841905, -0.420911625, -0.199295744, 0.027415757935, 0.15395353, 0.19371803499999998, 0.16740863, 0.06035250648, -0.1053460215, -0.242043645, -0.26863205, -0.16947991850000002, -0.0063151245600000004, 0.100503127, 0.06080647831, -0.08448189005, -0.19659693, -0.17573939500000002, -0.012089017755, 0.24149075499999997, 0.47485710500000006, 0.538015265, 0.33401907999999997, -0.0521470746795, -0.37460930500000006, -0.43763573, -0.23985736549999997, 0.07866609197, 0.366444975, 0.53200815, 0.54413278, 0.42585088499999996, 0.26089994, 0.169910675, 0.230821785, 0.40583657500000003, 0.55855697, 0.56239638, 0.40444267000000006, 0.19709723499999998, 0.09743860099999999, 0.199930725, 0.4749761, 0.78246668, 0.936325785, 0.81357158, 0.47661069, 0.160974757, 0.053326831, 0.0952711225, 0.07553180955, -0.1451028941435, -0.534056375, -0.94338694, -1.2400737499999999, -1.4186096000000001, -1.58128735, -1.7973202499999998, -2.0411239, -2.2453196500000003, -2.3464579, -2.2998027, -2.08202425, -1.6890485000000002, -1.144400175, -0.52867117, 0.021523186225, 0.386320705, 0.552239665, 0.62620016, 0.7480241200000001, 0.959618605, 1.1455504, 1.1415161, 0.927739195, 0.670383215, 0.5446627500000001, 0.5615462, 0.600944745, 0.585327315, 0.5594154499999999, 0.58889934, 0.646614605, 0.649388525, 0.578567, 0.5127587100000001, 0.53663252, 0.641807685, 0.737257815, 0.734464765, 0.5895309550000001, 0.305609185, -0.033751477594999996, -0.264683285, -0.26972761, -0.09037724064000001, 0.131117237, 0.265736725, 0.25523056499999996, 0.1272971905, -0.008459453266, -0.00664852256, 0.2038835805, 0.525661935, 0.7471574599999999, 0.7288838049999999, 0.517251445, 0.24146905, -0.039390905345, -0.30678278999999997, -0.495039575, -0.510883195, -0.309312425, 0.025885944735000003, 0.272464425, 0.22452116249999998, -0.09494447926999999, -0.43681783500000004, -0.597113995, -0.62729554, -0.71032164, -0.88606482, -1.001101085, -0.907595275, -0.624338585, -0.3028692, -0.07567742485000001, 0.027806694351500003, 0.03724943, -0.01860437237, -0.11473873400000001, -0.20048976, -0.21680621, -0.16006945000000003, -0.1026681205, -0.133229657, -0.25831621, -0.36305988, -0.31103723, -0.1065113265595, 0.08923012575, 0.128465483, 0.02019365154, -0.10491600449999999, -0.13275847000000002, -0.062026197500000005, 0.015252568105, 0.0189575203585, -0.036546959399999995, -0.062525509, 0.019538178273, 0.21539454500000002, 0.44807933499999997, 0.60083522, 0.605970955, 0.5001648200000001, 0.37557779500000005, 0.29388776, 0.265621475, 0.28201875, 0.328713145, 0.37615865, 0.39863746499999997, 0.4108084, 0.4464051, 0.484617815, 0.450282075, 0.32170430000000005, 0.19164484, 0.16312081, 0.21428435, 0.21531017, 0.068716833665, -0.191290704, -0.431893485, -0.532714415, -0.47976715, -0.36072202500000006, -0.270008845, -0.255570075, -0.32751033999999996, -0.457597975, -0.57473101, -0.60766168, -0.5516313199999999, -0.47473158, -0.45151568500000006, -0.490112345, -0.535625375, -0.529154855, -0.45447559, -0.35180044000000005, -0.287683505, -0.29839344, -0.35832558, -0.400059785, -0.371013645, -0.27192911, -0.1364550655, 6.589655999999988e-05, 0.097564797, 0.127635755, 0.11457384, 0.121130675, 0.17628364000000002, 0.23222016, 0.20061864499999998, 0.061310855885, -0.05644295, 0.02236527877, 0.317567015, 0.6850031350000001, 0.98221709, 1.1565789, 1.20863035, 1.16198955, 1.07061805, 0.9949597649999999, 0.948824725, 0.89345935, 0.79842956, 0.690346775, 0.62561208, 0.62434122, 0.633747365, 0.55398038, 0.33356598, 0.05571384469, -0.1226123445, -0.13976402, -0.0861154195, -0.085400806, -0.17005361, -0.276593025, -0.351956745, -0.40876335500000005, -0.449486885, -0.428337565, -0.326408025, -0.216440315, -0.20579996, -0.30140215000000004, -0.35876209000000003, -0.2265115235, 0.038678850279999996, 0.18827554, 0.042133477925, -0.355147935, -0.82446732, -1.2074053999999999, -1.44867535, -1.5748781, -1.61687885, -1.5819825, -1.4742973499999998, -1.3192319000000001, -1.1657065500000001, -1.035001715, -0.880789075, -0.67906548, -0.584248995, -0.86733763, -1.5001020500000002, -1.8794731999999998, -1.40762586, -0.33973541597, 0.5289655799999999, 0.86880218, 0.971145405, 1.15162385, 1.4103713, 1.5843354500000002, 1.6006311, 1.5445006000000001, 1.5336763, 1.57413395, 1.5759008, 1.48876455, 1.36474805, 1.2607255499999999, 1.15450915, 0.997553015, 0.7998290149999999, 0.626323795, 0.5189347200000001, 0.438845965, 0.31079214, 0.139329271, 0.028929712, 0.049181121, 0.143191494, 0.19776532, 0.16611682000000003, 0.09834592199999999, 0.060664418, 0.05988253, 0.064186562, 0.065954868, 0.07247460550000001, 0.0481385275, -0.055604867856, -0.19455663999999998, -0.22683692, -0.07434575577500001, 0.14046232449999999, 0.18227477, -0.058386436650000005, -0.44852847500000004, -0.73813664, -0.77119172, -0.614351255, -0.49090189500000003, -0.553297165, -0.7282115299999999, -0.8073570750000001, -0.68225032, -0.454075555, -0.31635746000000003, -0.3568857, -0.48581944, -0.5567859, -0.519343725, -0.42447837499999996, -0.328508195, -0.254492985, -0.224985615, -0.262658815, -0.349036615, -0.42665778000000004, -0.46340207499999997, -0.48185766999999996, -0.499138655, -0.47669877, -0.37775994500000004, -0.24789673, -0.17632518, -0.17144977, -0.139118335, -0.0256195082177, 0.0578378525, -0.058908230495, -0.36300852, -0.6263069649999999, -0.65127304, -0.46935677, -0.25364152, -0.1003475025, 0.0067136447515, 0.0833408395, 0.13026476, 0.200805125, 0.37807877500000003, 0.65841445, 0.9160447899999999, 1.018736395, 0.96013774, 0.876943795, 0.915840175, 1.046195825, 1.06125406, 0.82550737, 0.46773644500000006, 0.27078564499999996, 0.411595575, 0.8339162450000001, 1.29876175, 1.5241152500000001, 1.3586307, 0.9028367199999999, 0.426259265, 0.123442126, 0.005209707827999999, -0.0200624505, -0.0696809285, -0.231631215, -0.46009981000000005, -0.563747695, -0.39671366999999996, -0.044587599615, 0.197296875, 0.054802167034, -0.45307319999999995, -0.9958221349999999, -1.1930656, -0.8874592450000001]]",s3_d3,"[0, 1, 2, 3, 4, 5, 6, 7, 8, 9, 10, 11, 12, 13, 14, 15, 16, 17, 18, 19, 20, 21, 22, 23, 24, 25, 26, 27, 28, 29, 30, 31, 32, 33, 34, 35, 36, 37, 38, 39, 40, 41, 42, 43, 44, 45, 46, 47, 48, 49, 50, 51, 52, 53, 54, 55, 56, 57, 58, 59, 60, 61, 62, 63, 64, 65, 66, 67, 68, 69, 70, 71, 72, 73, 74, 75, 76, 77, 78, 79, 80, 81, 82, 83, 84, 85, 86, 87, 88, 89, 90, 91, 92, 93, 94, 95, 96, 97, 98, 99, 100, 101, 102, 103, 104, 105, 106, 107, 108, 109, 110, 111, 112, 113, 114, 115, 116, 117, 118, 119, 120, 121, 122, 123, 124, 125, 126, 127, 128, 129, 130, 131, 132, 133, 134, 135, 136, 137, 138, 139, 140, 141, 142, 143, 144, 145, 146, 147, 148, 149, 150, 151, 152, 153, 154, 155, 156, 157, 158, 159, 160, 161, 162, 163, 164, 165, 166, 167, 168, 169, 170, 171, 172, 173, 174, 175, 176, 177, 178, 179, 180, 181, 182, 183, 184, 185, 186, 187, 188, 189, 190, 191, 192, 193, 194, 195, 196, 197, 198, 199, 200, 201, 202, 203, 204, 205, 206, 207, 208, 209, 210, 211, 212, 213, 214, 215, 216, 217, 218, 219, 220, 221, 222, 223, 224, 225, 226, 227, 228, 229, 230, 231, 232, 233, 234, 235, 236, 237, 238, 239, 240, 241, 242, 243, 244, 245, 246, 247, 248, 249, 250, 251, 252, 253, 254, 255, 256, 257, 258, 259, 260, 261, 262, 263, 264, 265, 266, 267, 268, 269, 270, 271, 272, 273, 274, 275, 276, 277, 278, 279, 280, 281, 282, 283, 284, 285, 286, 287, 288, 289, 290, 291, 292, 293, 294, 295, 296, 297, 298, 299, 300, 301, 302, 303, 304, 305, 306, 307, 308, 309, 310, 311, 312, 313, 314, 315, 316, 317, 318, 319, 320, 321, 322, 323, 324, 325, 326, 327, 328, 329, 330, 331, 332, 333, 334, 335, 336, 337, 338, 339, 340, 341, 342, 343, 344, 345, 346, 347, 348, 349, 350, 351, 352, 353, 354, 355, 356, 357, 358, 359, 360, 361, 362, 363, 364, 365, 366, 367, 368, 369, 370, 371, 372, 373, 374, 375, 376, 377, 378, 379, 380, 381, 382, 383, 384, 385, 386, 387, 388, 389, 390, 391, 392, 393, 394, 395, 396, 397, 398, 399, 400, 401, 402, 403, 404, 405, 406, 407, 408, 409, 410, 411, 412, 413, 414, 415, 416, 417, 418, 419, 420, 421, 422, 423, 424, 425, 426, 427, 428, 429, 430, 431, 432, 433, 434, 435, 436, 437, 438, 439, 440, 441, 442, 443, 444, 445, 446, 447, 448, 449, 450, 451, 452, 453, 454, 455, 456, 457, 458, 459, 460, 461, 462, 463, 464, 465, 466, 467, 468, 469, 470, 471, 472, 473, 474, 475, 476, 477, 478, 479, 480, 481, 482, 483, 484, 485, 486, 487, 488, 489, 490, 491, 492, 493, 494, 495, 496, 497, 498, 499, 500, 501, 502, 503, 504, 505, 506, 507, 508, 509, 510, 511, 512, 513, 514, 515, 516, 517, 518, 519, 520, 521, 522, 523, 524, 525, 526, 527, 528, 529, 530, 531, 532, 533, 534, 535, 536, 537, 538, 539, 540, 541, 542, 543, 544, 545, 546, 547, 548, 549, 550, 551, 552, 553, 554, 555, 556, 557, 558, 559, 560, 561, 562, 563, 564, 565, 566, 567, 568, 569, 570, 571, 572, 573, 574, 575, 576, 577, 578, 579, 580, 581, 582, 583, 584, 585, 586, 587, 588, 589, 590, 591, 592, 593, 594, 595, 596, 597, 598, 599, 600, 601, 602, 603, 604, 605, 606, 607, 608, 609, 610, 611, 612, 613, 614, 615, 616, 617, 618, 619, 620, 621, 622, 623, 624, 625, 626, 627, 628, 629, 630, 631, 632, 633, 634, 635, 636, 637, 638, 639, 640, 641, 642, 643, 644, 645, 646, 647, 648, 649, 650, 651, 652, 653, 654, 655, 656, 657, 658, 659, 660, 661, 662, 663, 664, 665, 666, 667, 668, 669, 670, 671, 672, 673, 674, 675, 676, 677, 678, 679, 680, 681, 682, 683, 684, 685, 686, 687, 688, 689, 690, 691, 692, 693, 694, 695, 696, 697, 698, 699, 700, 701, 702, 703, 704, 705, 706, 707, 708, 709, 710, 711, 712, 713, 714, 715, 716, 717, 718, 719, 720, 721, 722, 723, 724, 725, 726, 727, 728, 729, 730, 731, 732, 733, 734, 735, 736, 737, 738, 739, 740, 741, 742, 743, 744, 745, 746, 747, 748, 749, 750, 751, 752, 753, 754, 755, 756, 757, 758, 759, 760, 761, 762, 763, 764, 765, 766, 767, 768, 769, 770, 771, 772, 773, 774, 775, 776, 777, 778, 779, 780, 781, 782, 783, 784, 785, 786, 787, 788, 789, 790, 791, 792, 793, 794, 795, 796, 797, 798, 799, 800, 801, 802, 803, 804, 805, 806, 807, 808, 809, 810, 811, 812, 813, 814, 815, 816, 817, 818, 819, 820, 821, 822, 823, 824, 825, 826, 827, 828, 829, 830, 831, 832, 833, 834, 835, 836, 837, 838, 839, 840, 841, 842, 843, 844, 845, 846, 847, 848, 849, 850, 851, 852, 853, 854, 855, 856, 857, 858, 859, 860, 861, 862, 863, 864, 865, 866, 867, 868, 869, 870, 871, 872, 873, 874, 875, 876, 877, 878, 879, 880, 881, 882, 883, 884, 885, 886, 887, 888, 889, 890, 891, 892, 893, 894, 895, 896, 897, 898, 899, 900, 901, 902, 903, 904, 905, 906, 907, 908, 909, 910, 911, 912, 913, 914, 915, 916, 917, 918, 919, 920, 921, 922, 923, 924, 925, 926, 927, 928, 929, 930, 931, 932, 933, 934, 935, 936, 937, 938, 939, 940, 941, 942, 943, 944, 945, 946, 947, 948, 949, 950, 951, 952, 953, 954, 955, 956, 957, 958, 959, 960, 961, 962, 963, 964, 965, 966, 967, 968, 969, 970, 971, 972, 973, 974, 975, 976, 977, 978, 979, 980, 981, 982, 983, 984, 985, 986, 987, 988, 989, 990, 991, 992, 993, 994, 995, 996, 997, 998, 999, 1000, 1001, 1002, 1003, 1004, 1005, 1006, 1007, 1008, 1009, 1010, 1011, 1012, 1013, 1014, 1015, 1016, 1017, 1018, 1019]","[[0.014218268999999999, 0.0119898895, 0.013669138, 0.013112806999999999, 0.013097759, 0.012325812, 0.0123173535, 0.0120205615, 0.012447387999999998, 0.0125756965, 0.012649408499999999, 0.012706191499999998, 0.0128423665, 0.012955996999999999, 0.012910429000000001, 0.0129059715, 0.012931816999999998, 0.012968041500000001, 0.012973038, 0.012947401999999998, 0.01289952, 0.012899118499999999, 0.012895557499999998, 0.01297423, 0.012931495, 0.0130087935, 0.013199327, 0.013210867500000001, 0.01313096, 0.013045117500000002, 0.0130338405, 0.013031107, 0.012998319000000001, 0.0129712135, 0.013051649, 0.013023334499999999, 0.012919024000000001, 0.0128648005, 0.0128181745, 0.0128129665, 0.0127536375, 0.012742963000000001, 0.012767984999999999, 0.012736351, 0.012341326500000001, 0.012262493999999999, 0.012242817500000001, 0.012251643000000001, 0.012406477499999999, 0.012393162, 0.012436447, 0.012370669999999999, 0.012381063000000001, 0.0123681685, 0.0123645185, 0.01235689, 0.0123398975, 0.0123297735, 0.012354738, 0.0124324845, 0.012499345500000002, 0.012589991, 0.0127791135, 0.012781311500000002, 0.0127550085, 0.012759292499999998, 0.012836604, 0.012839698, 0.012986794, 0.013185042000000001, 0.013273311500000001, 0.013229066499999999, 0.013207651, 0.013559557, 0.0138242755, 0.013818412499999998, 0.01373569, 0.014264540999999999, 0.014802451500000001, 0.014987264, 0.015153116, 0.0152017535, 0.015235262000000001, 0.015280341, 0.015294557, 0.015284865000000002, 0.0152640935, 0.015252640500000001, 0.015267031, 0.015266879499999999, 0.015258016999999999, 0.015256618, 0.015297053, 0.0153452335, 0.015336448499999999, 0.015322572000000001, 0.0153058425, 0.0152882505, 0.015263364, 0.015275229, 0.015277604, 0.015284556, 0.0152645115, 0.0152447245, 0.015210587, 0.015175863999999999, 0.015145222, 0.0151140545, 0.015130340499999999, 0.0151631645, 0.015158421, 0.015160635499999998, 0.015144811499999999, 0.015146866000000002, 0.0151341825, 0.0151095625, 0.015094417499999999, 0.015096354999999999, 0.015102101, 0.015095998, 0.0150952005, 0.0151209855, 0.015146466999999999, 0.015126169, 0.0151027405, 0.0150862655, 0.015058247, 0.015059603, 0.015028397, 0.014999326, 0.014989349, 0.014978983500000001, 0.014967124, 0.014951141999999999, 0.0149449275, 0.014928336499999998, 0.014842077, 0.014957294500000001, 0.0149649585, 0.0139121435, 0.01486057, 0.0147373435, 0.014341656000000001, 0.014387817, 0.014295295999999999, 0.014226842, 0.014154372500000002, 0.013791129, 0.0133208035, 0.012027105, 0.011977512, 0.012121524, 0.014519440500000001, 0.013933841499999999, 0.0138916595, 0.014099160500000001, 0.0138842415, 0.013786768, 0.0135453215, 0.013212782000000001, 0.01326653, 0.0132033675, 0.0133283295, 0.01315356, 0.013575149500000001, 0.013710464, 0.013038357, 0.012395516499999999, 0.0119137285, 0.010799931, 0.011879803, 0.0117848445, 0.0105374975, 0.011184756499999999, 0.0097400517, 0.009425471250000001, 0.009235790649999999, 0.009145621999999999, 0.0091156488, 0.00907733795, 0.008893769099999999, 0.00915136235, 0.00956434265, 0.0088279296, 0.00923313465, 0.011282522800000002, 0.013495206, 0.014147881, 0.0132508025, 0.012228157500000001, 0.012281007, 0.012189261, 0.01214809, 0.012280983, 0.012325287499999999, 0.0122842945, 0.012394111000000001, 0.0142250015, 0.013287545999999999, 0.012658879000000001, 0.0139222475, 0.012330146500000002, 0.011792549999999999, 0.0115539985, 0.011453623500000001, 0.0112171335, 0.012191787999999999, 0.0128136075, 0.012816413499999998, 0.01141845, 0.0115953365, 0.011112265, 0.010484194499999999, 0.011776079, 0.013835519999999999, 0.01441005, 0.0141033935, 0.0142076635, 0.01418166, 0.012711859999999998, 0.011581956, 0.011164572, 0.010519091000000001, 0.0103378275, 0.0102041065, 0.00983996215, 0.0090633069, 0.00873400545, 0.00853900505, 0.00848424865, 0.01200828195, 0.013294949, 0.0135490755, 0.013458517000000001, 0.012934178000000001, 0.0128800665, 0.011553078999999999, 0.010410814, 0.0099495638, 0.0099178237, 0.011434236, 0.0094109662, 0.0087384711, 0.0085759229, 0.00978402135, 0.014193724000000001, 0.0134398155, 0.014082642499999999, 0.0131068885, 0.0126938445, 0.013358125, 0.013125057499999999, 0.011999742, 0.010933802, 0.01061464, 0.010515995, 0.01023116605, 0.0099400855, 0.009598967849999999, 0.010213163, 0.0098693398, 0.00993221885, 0.009939336850000001, 0.0100839334, 0.009468737750000001, 0.008730847699999999, 0.00884864665, 0.0087087965, 0.011061939, 0.0097944113, 0.0093884965, 0.0092902352, 0.0080070061, 0.0080700583, 0.00735734425, 0.008965838, 0.00923189095, 0.0095736206, 0.00837106485, 0.0069248789, 0.0069290116, 0.009746381549999999, 0.00782367325, 0.00629592705, 0.00670865195, 0.01277258115, 0.014157329000000001, 0.0132342975, 0.0116482905, 0.011227016999999999, 0.00958238135, 0.0085488005, 0.00833297635, 0.008286425200000001, 0.01017257855, 0.00989758995, 0.0082637152, 0.01005241915, 0.01259474, 0.0127192185, 0.0125959945, 0.012489080500000001, 0.012851831000000001, 0.012720078, 0.012670389499999999, 0.012597058999999999, 0.012344735499999999, 0.012259328, 0.012296448, 0.012165153500000001, 0.0116802965, 0.00993470635, 0.011947260500000001, 0.012468454499999998, 0.013141259, 0.0113201815, 0.0106514344, 0.012196495, 0.0136336795, 0.013921233, 0.013799532000000002, 0.013825841, 0.0137929195, 0.013783825000000001, 0.0137822355, 0.013762333, 0.0137125735, 0.0136905775, 0.0130358775, 0.011938572000000001, 0.0120131115, 0.0134116215, 0.013315123, 0.0132760155, 0.013255122, 0.013408446000000001, 0.013289707500000001, 0.0123151115, 0.013062551, 0.013844826999999999, 0.013326435999999999, 0.0140456625, 0.013349247, 0.0141546455, 0.0142250125, 0.0139732815, 0.014062397499999999, 0.014223969999999999, 0.014296618, 0.014019004, 0.0142031395, 0.013921635000000002, 0.0137450185, 0.014232845999999999, 0.0142581545, 0.0142676855, 0.0139242245, 0.014262585500000001, 0.014326896499999998, 0.013978609, 0.0130290185, 0.013115789499999999, 0.0131550725, 0.01403252, 0.014050803999999998, 0.013809100999999999, 0.012944705, 0.0132979475, 0.012404478000000002, 0.0122621845, 0.012191056499999998, 0.0133511905, 0.0126121375, 0.0117527095, 0.0124695555, 0.0137514935, 0.013739567500000001, 0.0139066895, 0.0135073765, 0.012719926500000001, 0.0123419195, 0.012739595999999999, 0.0129751175, 0.012064251, 0.012564255, 0.0125548975, 0.012538912499999999, 0.0124957495, 0.0118215995, 0.011860758499999999, 0.011733011, 0.011471865999999999, 0.011517628499999998, 0.012907540500000002, 0.012938331999999999, 0.0129080355, 0.012896558499999999, 0.012903623, 0.012899627, 0.0128665295, 0.0128196365, 0.012442129, 0.010837933, 0.013801452, 0.013991228, 0.0143709385, 0.014334054, 0.0141257275, 0.0132101115, 0.011979878, 0.012271962, 0.012531575, 0.0139909835, 0.013741359500000001, 0.013692594499999999, 0.012778747, 0.012721153, 0.0123680655, 0.011860119499999999, 0.013082433, 0.0140927015, 0.013793491, 0.012478866500000001, 0.0110734055, 0.0107620925, 0.010657245, 0.010446278, 0.0104310815, 0.010675072, 0.00992437885, 0.01095167375, 0.013867965, 0.012928697, 0.011528236999999998, 0.012172278000000002, 0.010805594, 0.00974748555, 0.01006538595, 0.01039921745, 0.0126568395, 0.013745919499999999, 0.014250771499999999, 0.014227026, 0.014180184, 0.014432987500000001, 0.014553799499999999, 0.014501321499999999, 0.014266161, 0.013837373, 0.01309768, 0.012436136, 0.0115163957, 0.013643088500000001, 0.012930928500000001, 0.01315737, 0.0132523435, 0.013732132, 0.0142010455, 0.013918685500000002, 0.0139880615, 0.0142588465, 0.01439022, 0.0142513395, 0.014598016, 0.013770373499999999, 0.013239413499999998, 0.012621058999999999, 0.014016734500000001, 0.014351173, 0.0138886555, 0.01296727, 0.0117687165, 0.0123563275, 0.013042227, 0.013291613, 0.013494665500000001, 0.014222268, 0.01439602, 0.01435741, 0.0144964765, 0.0143009325, 0.0140011425, 0.0139359505, 0.013492747999999999, 0.0132985345, 0.0124934775, 0.0108547655, 0.0107588995, 0.0131802905, 0.0141585925, 0.014227109, 0.01388469, 0.014396465, 0.014470785500000001, 0.0147990515, 0.0146703875, 0.0148634575, 0.014823619500000001, 0.014827781, 0.014856514000000001, 0.0150060545, 0.0144706135, 0.0137709445, 0.0143265265, 0.0145381815, 0.014619102, 0.014343766499999999, 0.011821295, 0.013295291499999999, 0.013239065500000001, 0.014122741000000001, 0.014740506499999998, 0.015001278, 0.014766300500000001, 0.0145044075, 0.0146501755, 0.014351421, 0.0144693965, 0.014559757, 0.014303238499999999, 0.0147571615, 0.0148816615, 0.014796651000000001, 0.014695557, 0.014453537999999998, 0.014521250000000001, 0.014730824, 0.0148817815, 0.0148239185, 0.014900083, 0.015042455, 0.0150072005, 0.0150166395, 0.014785364, 0.0146430185, 0.015002725500000001, 0.0144018775, 0.013883023500000001, 0.0140103275, 0.014070382, 0.0140827655, 0.0136241145, 0.013854773499999999, 0.014118375999999998, 0.0143759175, 0.0144580635, 0.014710527499999999, 0.014179260499999999, 0.01445462, 0.0144517195, 0.014309150500000001, 0.014070077, 0.014028103, 0.014650973000000001, 0.0143198935, 0.0134244385, 0.0129427125, 0.0128355975, 0.012770748, 0.012803934999999999, 0.012831594, 0.012810124, 0.0127583765, 0.0127428835, 0.012693922500000001, 0.0127557795, 0.012753912000000001, 0.012680246, 0.012628606499999999, 0.012587, 0.013093583499999999, 0.013244665, 0.0130396585, 0.013669049499999999, 0.014191560999999998, 0.0141116175, 0.013902999499999999, 0.014040575, 0.014194316, 0.014525719999999999, 0.014671748, 0.014939068, 0.0146970985, 0.014525980999999999, 0.0147063565, 0.014573911500000002, 0.0146298635, 0.01448289, 0.014353682999999999, 0.014259525500000002, 0.014209336, 0.013900109, 0.0137564785, 0.013617750500000001, 0.013458445000000001, 0.013961604, 0.0137041155, 0.013785831500000002, 0.0138120965, 0.0138454755, 0.0135096605, 0.012828865, 0.012699524, 0.012522284500000001, 0.0125631735, 0.0137045045, 0.014367406499999999, 0.013957479, 0.013646239, 0.014353849, 0.013979254000000002, 0.013629429500000002, 0.014895832, 0.014832204, 0.014445585, 0.014506243, 0.014175632, 0.014393057, 0.0148739665, 0.015137693, 0.015195146500000001, 0.014954153, 0.0149839365, 0.014783139, 0.014415121, 0.0141720435, 0.014022637499999999, 0.013301527, 0.012754546499999998, 0.0139702245, 0.014386264, 0.014666636500000002, 0.013970068, 0.0126328065, 0.0135824915, 0.012097208500000001, 0.011309743, 0.012059515, 0.013851685, 0.0139319815, 0.011782467000000001, 0.010715501, 0.01020545475, 0.014100003000000002, 0.0142917385, 0.01486683, 0.015220761000000001, 0.015175824, 0.015108759000000001, 0.0151613175, 0.0149065035, 0.0149923585, 0.014130865999999999, 0.013468509, 0.013442530500000001, 0.0123719165, 0.011752312000000001, 0.0147212995, 0.014395666, 0.014543252, 0.0134916825, 0.014284906, 0.014294818, 0.014544663, 0.0148533245, 0.015226202, 0.014895487999999998, 0.013346328999999999, 0.0149105435, 0.0150487645, 0.0149863645, 0.0145961145, 0.0150221425, 0.01515857, 0.0148789685, 0.012667706, 0.0118303085, 0.0121469875, 0.013836815499999999, 0.014424056999999999, 0.014477009999999998, 0.014796256, 0.0145105975, 0.012619768, 0.0114856, 0.0113523105, 0.0111927655, 0.00939087975, 0.0144410565, 0.015205639, 0.015241211999999999, 0.015217965, 0.0153297105, 0.0152129165, 0.0151930815, 0.015168916999999999, 0.0150984795, 0.014988519, 0.0148030065, 0.015099649, 0.0150741905, 0.0147862125, 0.014123252, 0.015083209500000002, 0.0149679635, 0.014912569499999999, 0.015588200000000002, 0.015410895, 0.015381477999999999, 0.0151414435, 0.014308386, 0.014504427, 0.014054016, 0.0132253815, 0.0120817305, 0.0114445275, 0.0102672225, 0.0102794415, 0.010260838500000001, 0.0100990835, 0.00992932995, 0.01028027485, 0.013663064, 0.011846921500000001, 0.011835201500000002, 0.011852917999999999, 0.011796495, 0.0111977025, 0.0109350725, 0.009494756, 0.0086290444, 0.0113797953, 0.011854342, 0.012619815000000001, 0.010579965549999999, 0.0101021662, 0.00870660145, 0.00800164625, 0.0077459038000000004, 0.00836022845, 0.013315649, 0.015102711500000001, 0.0152470135, 0.0151670475, 0.014783728000000001, 0.0132885815, 0.012346089499999999, 0.012468193999999998, 0.012562934999999999, 0.012536351999999999, 0.0125026335, 0.012582992500000001, 0.012591802999999999, 0.0126023375, 0.012580806, 0.010691381, 0.01091566, 0.011235463400000001, 0.0148962145, 0.015023580000000002, 0.015112656, 0.015122871, 0.0151453905, 0.015102656999999998, 0.014925344, 0.014862892, 0.0149696885, 0.0149624595, 0.0148289945, 0.015087403, 0.0152713695, 0.015060862, 0.014786220999999999, 0.015183676, 0.0150787595, 0.014963873999999999, 0.014970329499999999, 0.015071748000000001, 0.014975042000000001, 0.015016258, 0.015143065, 0.015308539000000001, 0.0153111255, 0.0154006095, 0.0152398075, 0.014252007499999999, 0.0146163475, 0.015361668, 0.015284385000000001, 0.0150955215, 0.0153950775, 0.01537787, 0.014750494999999999, 0.015037739999999999, 0.015460227, 0.0152678395, 0.015110146, 0.0148778125, 0.0146247805, 0.013273525, 0.013149069499999999, 0.014801561999999999, 0.015155400000000001, 0.015139125, 0.014172634500000001, 0.014058089499999999, 0.0122224175, 0.0118230125, 0.014516728999999999, 0.014819001, 0.014860834, 0.015028103, 0.0153559385, 0.01565068, 0.015750695500000002, 0.015803873, 0.015713018999999998, 0.0153798725, 0.0152607, 0.0152279185, 0.0146249805, 0.015047524000000001, 0.014686341, 0.0133339875, 0.0128657195, 0.012118206, 0.011655862500000001, 0.013027455, 0.0139503335, 0.0114346025, 0.0129116597, 0.0149633035, 0.0148163125, 0.014733832499999999, 0.013866084999999998, 0.012265094999999998, 0.0111274345, 0.0105781675, 0.0097586759, 0.010165013149999999, 0.0099824234, 0.009533668, 0.0080943645, 0.00857704665, 0.010416974050000001, 0.00873110195, 0.0084284225, 0.013629268000000002, 0.0130419635, 0.0140867195, 0.0133200835, 0.013532389, 0.011866461, 0.012294735999999999, 0.013796042, 0.013338098, 0.0118788135, 0.0116321935, 0.00982840085, 0.0080644102, 0.0081033632, 0.0119357411, 0.013087651, 0.0129138365, 0.01076295685, 0.011887969, 0.0115274285, 0.011620959500000002, 0.011530457999999999, 0.012502594, 0.0137456275, 0.014354955, 0.0146230775, 0.015030025, 0.015155573499999998, 0.015158313000000001, 0.0151539465, 0.015146692, 0.015251476, 0.015226138, 0.0151740775, 0.015119002, 0.01512845, 0.0151220455, 0.015118603500000001, 0.0151242225, 0.015125918, 0.015110641000000001, 0.0150723695, 0.015110250999999998, 0.015134811, 0.015127021499999999, 0.015125799, 0.014535297, 0.012679023000000001, 0.013788199000000001, 0.012572933500000001, 0.0112937545, 0.012105728, 0.0128999595, 0.013022838000000002, 0.0131715715, 0.01341796, 0.013437041, 0.013412186999999999, 0.011479340499999999, 0.00958277575, 0.009283610500000001, 0.0091538095, 0.00908811765, 0.008559661750000001, 0.0080811862, 0.010975522500000001, 0.014274535999999999, 0.013637509999999999, 0.012483112999999999, 0.01042176375, 0.011482574249999999, 0.014040375, 0.014175323, 0.014219459, 0.01306479, 0.012323634000000002, 0.014100508000000001, 0.0129905845, 0.011684246, 0.011346779, 0.0113904205, 0.012142686, 0.012575752499999999, 0.012723395, 0.0136094365, 0.0134123995, 0.01291413, 0.013180259000000001, 0.0150761415, 0.015500170499999999, 0.015769951, 0.0157902165, 0.0153792635, 0.015024236, 0.0145855085, 0.014994434000000001, 0.0155347955, 0.0156343595, 0.0155586405, 0.015113017, 0.014525214, 0.015178124500000001, 0.0144790025, 0.014467259500000001, 0.01495891, 0.014726293500000001, 0.013038208, 0.012753497499999999, 0.0135029355, 0.014408238, 0.0134680405, 0.011189709999999999, 0.0120323655, 0.014219361500000001, 0.013526824500000001, 0.013054569, 0.010857747499999999, 0.0119224465, 0.01181689, 0.00869542175, 0.0068028227500000005, 0.006624116249999999, 0.0064157702, 0.006233835599999999, 0.0060932836999999995, 0.005944799549999999, 0.0057426488, 0.0056224057, 0.0055580045, 0.00543564665, 0.0060198467, 0.0055508572, 0.0049223272, 0.004682676, 0.0090091055, 0.00681905065, 0.0062355701500000004, 0.005084355499999999, 0.0049172267, 0.0049350509, 0.004915645, 0.00486950595, 0.00473565835, 0.00469151015, 0.0046102908500000005, 0.0046804747, 0.00452508925, 0.0041389762, 0.0041103681, 0.00406849605, 0.0042016124, 0.00812320975, 0.0154748245, 0.0155040695, 0.012957609000000002, 0.012479414, 0.01030244625, 0.0107984733, 0.01213312245, 0.012325805350000002, 0.012455224, 0.00985174125, 0.010013773850000001, 0.0117445604, 0.0091107277, 0.008678023299999999, 0.00821828275, 0.00886473585, 0.010779235949999999, 0.01069350105, 0.0064635777000000005, 0.0061643327000000005, 0.0065976696], [0.20699411999999998, 0.2078444, 0.20542942, 0.202949875, 0.20286373000000002, 0.20320592, 0.20156845499999998, 0.19946615999999998, 0.197969535, 0.19922471000000003, 0.20098446, 0.20061654999999998, 0.20062017499999998, 0.199998085, 0.20072938, 0.20092571, 0.19961321, 0.19784441, 0.196361125, 0.195500785, 0.19477667499999998, 0.19388376000000002, 0.19289977, 0.19281494500000002, 0.19250541999999998, 0.19261959, 0.19349533000000002, 0.19259973500000002, 0.195503815, 0.200325045, 0.20771588000000002, 0.20905303, 0.20740745, 0.20270686999999998, 0.197486325, 0.19395257000000002, 0.19236309, 0.19059252499999998, 0.18906628, 0.18759467000000002, 0.186322625, 0.18530416, 0.184276685, 0.18326072499999999, 0.18236234499999998, 0.18144685500000002, 0.18062957999999998, 0.179868955, 0.17912827499999998, 0.178389945, 0.177655565, 0.176934035, 0.176330445, 0.176303935, 0.17605801499999998, 0.17631695, 0.18016537, 0.18455787, 0.186327955, 0.18469764000000002, 0.182812665, 0.18155289, 0.180485535, 0.17962071500000001, 0.17879769, 0.17811619, 0.17727566499999997, 0.17645844, 0.175089495, 0.17544101999999998, 0.176588855, 0.17637491, 0.1753366, 0.17427423, 0.173354165, 0.172758915, 0.17363798500000002, 0.176586005, 0.17322308, 0.170878415, 0.169241505, 0.16902598000000002, 0.16841298999999998, 0.16737424, 0.16617355499999997, 0.16507058, 0.16410597500000002, 0.16325003, 0.162458405, 0.16169724500000002, 0.160988805, 0.16035569, 0.15969121, 0.15907814, 0.15850395, 0.157881795, 0.157231195, 0.15662601499999998, 0.156028515, 0.15543632000000002, 0.154887985, 0.15440802, 0.15382770499999998, 0.15334437, 0.152967405, 0.15396432000000002, 0.155231755, 0.15525122, 0.1545217, 0.15360626, 0.152789515, 0.15291623, 0.153815135, 0.153807395, 0.15304804, 0.15214141, 0.15134360000000002, 0.150635175, 0.15000118, 0.14942441, 0.14894396499999998, 0.14917403, 0.14919238999999998, 0.148740655, 0.14912917, 0.149932865, 0.14877036, 0.149321705, 0.15055863, 0.149936715, 0.151489865, 0.1543129, 0.155390475, 0.15520798, 0.15368941, 0.15270198000000001, 0.152431295, 0.15170331, 0.15236995, 0.151931595, 0.151014615, 0.152034155, 0.1601232, 0.16753205000000002, 0.16950174499999998, 0.168748255, 0.16828672, 0.16753341500000002, 0.16701416, 0.1663599, 0.165366075, 0.164580635, 0.16515433999999998, 0.16878034, 0.17191404999999998, 0.17250124, 0.170955665, 0.169187345, 0.16779594, 0.16711932000000002, 0.16643055499999998, 0.16563125, 0.164943795, 0.164530525, 0.163793815, 0.16270679999999998, 0.161802325, 0.16122114499999998, 0.16064757, 0.160157235, 0.15983348, 0.16025836000000002, 0.161637745, 0.16241624000000002, 0.16216043500000002, 0.16249680000000002, 0.162964245, 0.163240735, 0.162768585, 0.16193935, 0.16074094, 0.161058605, 0.16091384, 0.160524125, 0.159291905, 0.15826776, 0.15789221, 0.157567755, 0.15706615499999999, 0.15779674500000002, 0.158156315, 0.15891457, 0.159111495, 0.159812605, 0.16033842, 0.15947371, 0.158949855, 0.15825465, 0.15828582, 0.158006605, 0.158052665, 0.15797395, 0.15709278, 0.1566619, 0.1565842, 0.16034687000000003, 0.16071633, 0.16099477499999998, 0.166681445, 0.17281987000000001, 0.17476695500000003, 0.17456886000000002, 0.17266645, 0.1725101, 0.17444041500000002, 0.17307441499999998, 0.172017705, 0.17231165999999998, 0.17667382, 0.17987349000000002, 0.180786945, 0.179007615, 0.17755598500000003, 0.176849145, 0.177757805, 0.17841401999999998, 0.17855548, 0.17990187500000002, 0.17880416, 0.177700385, 0.17740186000000002, 0.17717983499999998, 0.17979244000000003, 0.18043758499999998, 0.18037054000000002, 0.181126645, 0.181350765, 0.18085476499999997, 0.179848365, 0.179112765, 0.17869274000000002, 0.17853147, 0.17861877, 0.177293905, 0.177507045, 0.179688915, 0.18058461999999997, 0.17983556499999998, 0.17975332000000002, 0.17984105, 0.181294775, 0.18222248, 0.18225660999999999, 0.18229353, 0.183881665, 0.18477357000000003, 0.18410927000000002, 0.17981163, 0.17839159999999998, 0.178560165, 0.18033739499999998, 0.179365865, 0.176448355, 0.17460172, 0.17271352499999998, 0.17086645999999997, 0.16914119, 0.16747566, 0.166470555, 0.16534586999999998, 0.16462310500000002, 0.16431223, 0.16352342, 0.162620285, 0.161714745, 0.16197769, 0.166545475, 0.16396370000000002, 0.162746805, 0.162085265, 0.161827585, 0.162387, 0.162462565, 0.16091160999999998, 0.16037343, 0.160083025, 0.16250457999999998, 0.16894797, 0.16924712, 0.168178305, 0.168662305, 0.16945922, 0.169775905, 0.168677555, 0.16700742000000002, 0.16510303499999998, 0.163323115, 0.16176385499999998, 0.161026065, 0.16024800500000003, 0.159706925, 0.158848825, 0.15927799, 0.158440855, 0.157617445, 0.157824275, 0.15873442499999998, 0.16528524, 0.16897454, 0.16760805999999998, 0.16890660000000002, 0.176347185, 0.1792641, 0.178781715, 0.17680583500000002, 0.17402432999999998, 0.17135126, 0.17017110500000002, 0.169456585, 0.169551505, 0.168156225, 0.16657972499999998, 0.16425081500000002, 0.16184838, 0.16148252, 0.161693785, 0.1609306, 0.16041879, 0.15985263, 0.1595369, 0.158337625, 0.15664717, 0.15672211, 0.157273465, 0.157717505, 0.15728173, 0.1564391, 0.15546611999999999, 0.15336707, 0.152107275, 0.15204294, 0.15248946500000002, 0.15217222, 0.151732695, 0.1512281, 0.1505665, 0.15140486, 0.152098135, 0.15189194, 0.15147676499999999, 0.150391995, 0.14905447, 0.14810925, 0.14890482, 0.14764075, 0.14680621500000002, 0.1466188, 0.14818894, 0.148272435, 0.14791846, 0.14811762, 0.149194535, 0.15025218, 0.150072735, 0.1501511, 0.15006756, 0.149976825, 0.148602135, 0.14790237, 0.14839197499999998, 0.148577555, 0.14739785, 0.14743755, 0.14606338, 0.14364725, 0.14331583, 0.14302319, 0.142968625, 0.14258139, 0.142296015, 0.14297192, 0.14300922, 0.14274402, 0.143353725, 0.142140925, 0.140506295, 0.13960692, 0.139486415, 0.14040397000000002, 0.145787905, 0.14956732, 0.15083631, 0.149888685, 0.15145307, 0.15110181, 0.153578025, 0.157347625, 0.158406465, 0.15833223999999999, 0.15786028, 0.157016835, 0.156043125, 0.15525544, 0.154226425, 0.15337836, 0.15425418999999999, 0.15633492000000002, 0.156893265, 0.156792305, 0.156518465, 0.15601558499999998, 0.15551591, 0.155112465, 0.15460144, 0.15418463, 0.153826765, 0.15369624999999998, 0.15332147499999998, 0.15239189, 0.151555775, 0.15429558, 0.15494054999999998, 0.155265185, 0.15635697, 0.1569081, 0.156621695, 0.15592361999999999, 0.15418657, 0.15269075, 0.15244353, 0.15270069, 0.15220997, 0.151287395, 0.14831536, 0.146164555, 0.144708955, 0.143796295, 0.144612, 0.14351285, 0.14199173, 0.141067765, 0.14026281, 0.139387115, 0.13876306, 0.13837577, 0.13822077500000002, 0.14041854, 0.1406098, 0.13941274, 0.13855425500000002, 0.137767365, 0.137413855, 0.13717951, 0.136052095, 0.13580267000000001, 0.13775021, 0.13894085, 0.137710875, 0.137459555, 0.13666408, 0.13723404, 0.13678238, 0.136975065, 0.136552815, 0.13658709, 0.136477775, 0.13657128999999998, 0.13638086, 0.13615703, 0.13618922, 0.136275115, 0.135725665, 0.13464486, 0.13399914000000002, 0.13434965999999998, 0.133603535, 0.13360603, 0.13319720000000002, 0.133131125, 0.13251035, 0.13183862, 0.13147631499999998, 0.132608815, 0.13209098, 0.13129128, 0.130694355, 0.13044798500000002, 0.13074068, 0.13084888, 0.131566505, 0.131628455, 0.13154378, 0.13159547, 0.131569585, 0.13129981000000002, 0.13107633999999999, 0.13074913999999999, 0.130656635, 0.130433165, 0.13025572, 0.130162435, 0.129962125, 0.130036275, 0.129806015, 0.12959307, 0.12906686, 0.128657395, 0.12825808500000002, 0.127981435, 0.12756311, 0.127150475, 0.12675766, 0.126780845, 0.128452525, 0.128043585, 0.12818979, 0.13184231000000002, 0.137725775, 0.14125185, 0.14117421500000002, 0.139518285, 0.13830085, 0.137177015, 0.136279865, 0.136895525, 0.136384745, 0.136212225, 0.13777254, 0.139801135, 0.140270945, 0.1392151, 0.137869205, 0.137044295, 0.136203125, 0.13535576, 0.134787705, 0.134226635, 0.1340821, 0.134098645, 0.134185635, 0.13423884, 0.133820565, 0.13366683000000001, 0.13329981, 0.132796775, 0.13252679, 0.131961995, 0.13150391, 0.13079599, 0.134031, 0.137344455, 0.137608265, 0.13553124, 0.1344847, 0.134316605, 0.13635899, 0.13705367000000002, 0.137091935, 0.136832205, 0.13665095000000002, 0.13827409499999999, 0.137892975, 0.137026795, 0.13634771, 0.136110635, 0.13547288500000002, 0.13500806499999998, 0.13467299, 0.134169995, 0.133473445, 0.133138475, 0.134391555, 0.1355029, 0.134985005, 0.13486340500000002, 0.134737515, 0.13445113, 0.13403695000000002, 0.133710505, 0.1330212, 0.13233475, 0.13173803, 0.13147092000000002, 0.13116165000000002, 0.13052865, 0.130007375, 0.12983988500000002, 0.130074915, 0.13076115, 0.130407835, 0.12996033, 0.12948147000000002, 0.1288309, 0.1288137, 0.1288146, 0.127958695, 0.127172425, 0.12633598499999998, 0.125784285, 0.12527014, 0.12482623, 0.12502789, 0.12563426, 0.12580092499999998, 0.12704328, 0.12821007, 0.13148483, 0.133405795, 0.13373994, 0.133277565, 0.13262229, 0.131991405, 0.13149054, 0.1310049, 0.130473885, 0.12973153, 0.129121785, 0.128763635, 0.12868826, 0.12839492, 0.129747635, 0.13061511, 0.130248525, 0.13001794, 0.129611435, 0.12914374, 0.12833655, 0.127920345, 0.12965960499999998, 0.13259717999999998, 0.13376011, 0.13618112500000001, 0.13695823000000001, 0.137115475, 0.13655023, 0.136592475, 0.135822335, 0.13460329, 0.13341011, 0.132117585, 0.13104789, 0.13018366, 0.12944050499999998, 0.12886098499999998, 0.12837680499999998, 0.128035665, 0.13069848, 0.12995414, 0.12958831999999998, 0.12889725500000002, 0.12856640500000002, 0.12820818, 0.127789465, 0.12766093, 0.1294161, 0.128700525, 0.127912295, 0.127830975, 0.12792529, 0.128050215, 0.12843034, 0.12851771, 0.128694825, 0.128470595, 0.12844701, 0.128720865, 0.12843960499999998, 0.12850213, 0.12883069, 0.128615385, 0.128314185, 0.128224195, 0.12855202999999998, 0.12827415, 0.127863465, 0.127996705, 0.12767852, 0.127347435, 0.12787271, 0.12769844, 0.12751258999999998, 0.12819186, 0.12846489, 0.128222575, 0.12696432, 0.12736608500000002, 0.12741526, 0.127340245, 0.12773435, 0.12724176, 0.12649426, 0.125984315, 0.12553975, 0.12512672, 0.124819815, 0.12450596000000001, 0.12420398, 0.12425884, 0.124407035, 0.12422258, 0.12368223499999999, 0.1244511, 0.12423011499999999, 0.12373716, 0.12477977, 0.128238525, 0.129616645, 0.13011773, 0.130712015, 0.13054429, 0.13007961, 0.129726765, 0.12928463499999998, 0.12893047, 0.128389985, 0.12779617999999998, 0.12795368999999998, 0.127019605, 0.12667102, 0.12687483500000002, 0.127026015, 0.1267286, 0.126525925, 0.12617024000000002, 0.125830305, 0.126438295, 0.12743319, 0.12717672500000002, 0.12656112, 0.12632783, 0.126179725, 0.126431495, 0.12626076, 0.126039395, 0.126319135, 0.125844655, 0.125516515, 0.12527359999999998, 0.12505333, 0.12505001500000001, 0.125476165, 0.125156465, 0.12482381999999999, 0.12468598, 0.12435128000000001, 0.12433968000000001, 0.12410930499999999, 0.123531675, 0.12341582000000001, 0.12354577000000001, 0.1239142, 0.12387536, 0.123038825, 0.123483865, 0.12491975999999999, 0.125523395, 0.125153175, 0.124887385, 0.12491505, 0.124461295, 0.12423667999999999, 0.127127515, 0.130265155, 0.131157355, 0.131877125, 0.132417435, 0.131526225, 0.13227629500000002, 0.131234925, 0.13074886, 0.13003083999999998, 0.130338195, 0.13029833999999998, 0.130159735, 0.12979976000000001, 0.12955591, 0.129387995, 0.129191705, 0.1290028, 0.128640325, 0.12835867, 0.12827584, 0.128702355, 0.13056115999999998, 0.134227025, 0.13190117499999998, 0.132399355, 0.133990945, 0.13366584, 0.13268441, 0.13167975, 0.130928775, 0.13069566500000002, 0.13219784499999998, 0.13479554500000002, 0.13496312, 0.134532235, 0.13407944, 0.13365574, 0.133137425, 0.13263701, 0.13228618, 0.13222642, 0.13220349, 0.13198703, 0.13246299, 0.13257771999999998, 0.133702495, 0.134088575, 0.133481275, 0.13301339, 0.132629685, 0.13251559999999998, 0.13249973, 0.13189664, 0.13100465, 0.130664535, 0.13142288000000002, 0.13231657500000002, 0.1320894, 0.13139658499999998, 0.13009221, 0.12960419, 0.129526675, 0.12883808500000002, 0.12817759, 0.12755367, 0.127774175, 0.12804881999999998, 0.127952965, 0.127626005, 0.1271556, 0.126750875, 0.12698396, 0.127047905, 0.127053975, 0.12737063, 0.12764431, 0.127711405, 0.1275924, 0.127549195, 0.12742369, 0.12751891, 0.13040596000000002, 0.13368847, 0.136222295, 0.13838188499999998, 0.141362395, 0.141034, 0.13998846, 0.140549835, 0.140285035, 0.13871387999999998, 0.13739112, 0.13756775499999999, 0.138287985, 0.138139445, 0.13931348500000001, 0.13842945, 0.136845385, 0.135830145, 0.134947345, 0.13420559499999998, 0.13425893, 0.13509871, 0.134729935, 0.13434785, 0.133963515, 0.13372763000000001, 0.13350962, 0.13338455500000002, 0.13396375000000002, 0.13382813999999998, 0.133520005, 0.132306535, 0.131801, 0.131975765, 0.13210458, 0.13200801, 0.13163993, 0.131280655, 0.130712755, 0.13081210000000001, 0.13197949, 0.131685355, 0.136066405, 0.14166119, 0.14345249499999999, 0.142087505, 0.14116816, 0.141713065, 0.14116231, 0.14014860499999998, 0.1403655, 0.13969958, 0.13977891, 0.140515875, 0.139380065, 0.13825701499999998, 0.13827005, 0.137317615, 0.136473615, 0.13591533, 0.135124445, 0.134445815, 0.13385296500000002, 0.13363651499999998, 0.137093225, 0.13653713, 0.136203085, 0.13543232, 0.136066925, 0.13711215, 0.13660455999999999, 0.136609835, 0.13678727999999998, 0.13621483, 0.13655917, 0.13645004, 0.13620142, 0.135800395, 0.135473845, 0.13485415, 0.13496411, 0.136612325, 0.13729354000000002, 0.13767074499999998, 0.1375168, 0.137223345, 0.136805, 0.13635127, 0.136334515, 0.136300945, 0.136050035, 0.135315705, 0.13510734, 0.135013995, 0.134932265, 0.13486234, 0.13438193, 0.13405816, 0.13316147, 0.13259235, 0.132250735, 0.132319, 0.132660435, 0.13152772000000001, 0.13181148, 0.13680542, 0.14662491, 0.151984985, 0.151831035, 0.14810759, 0.144742915, 0.143821395, 0.141701495, 0.140281605, 0.13969114, 0.13886813, 0.13818605, 0.137571425, 0.136974015, 0.136050765, 0.13540661, 0.13511033, 0.14150216999999998, 0.13960706, 0.13837525, 0.13896736499999998, 0.14028527999999998, 0.13944489499999999, 0.13911148, 0.13986446, 0.14243159500000002, 0.14226658, 0.14220244, 0.141947855, 0.141614285, 0.141297635, 0.14099332, 0.140999525, 0.141060365, 0.14049564, 0.1397104, 0.13914769, 0.13852983500000002, 0.13783500999999998, 0.137745055, 0.137515905, 0.137048275, 0.136168795, 0.135767605, 0.13536473000000002, 0.13580859, 0.13555336, 0.13429646, 0.1334311, 0.13303573999999999, 0.13194736499999998, 0.13124461, 0.130573955, 0.12975720000000002, 0.12891981, 0.12899765, 0.12872693, 0.12895412, 0.128982995, 0.12872728, 0.12938449, 0.130211375, 0.13071393, 0.131135725, 0.130534095, 0.130122415, 0.129528295, 0.129353205, 0.130727785, 0.13239062000000001, 0.13254702999999998, 0.132027395], [0.38316234, 0.388255475, 0.39016002, 0.39721404, 0.39732145, 0.392200055, 0.394509345, 0.39631331000000003, 0.391811655, 0.388825315, 0.39319626999999996, 0.38631569, 0.387497755, 0.40577958000000003, 0.4154197, 0.427276605, 0.440733555, 0.428995935, 0.416962155, 0.411607985, 0.41198344499999995, 0.409658325, 0.40461277500000004, 0.40419194500000005, 0.410269675, 0.413616145, 0.4103094, 0.41041939499999996, 0.4134875, 0.40930088500000006, 0.403912805, 0.39982942, 0.39678161, 0.39456665999999996, 0.40014510999999997, 0.392026125, 0.39071559, 0.38927047000000004, 0.38261562, 0.374611425, 0.367741325, 0.363155795, 0.36061855000000004, 0.35968870000000003, 0.35779255, 0.35790317, 0.35760155, 0.35952672999999996, 0.36027073000000004, 0.35810682499999996, 0.357686665, 0.35420803999999995, 0.36779395000000004, 0.379805645, 0.39569537, 0.396209995, 0.39682856, 0.40078876999999996, 0.40217368, 0.39873466, 0.40265333499999995, 0.39825235999999997, 0.39250170500000003, 0.38951828, 0.38464461499999997, 0.387152155, 0.392175405, 0.40079948000000004, 0.39883156, 0.39304564, 0.38888771499999997, 0.38553790499999996, 0.38303430499999996, 0.38120004, 0.379696185, 0.37876193, 0.37817197, 0.37689507, 0.37634863, 0.37563573499999997, 0.374597895, 0.3777874, 0.381375, 0.38080941, 0.37978101000000003, 0.37824618, 0.37711480999999997, 0.37515946499999997, 0.37087204999999995, 0.369210845, 0.36776873000000004, 0.36813281000000003, 0.374177845, 0.38017940000000006, 0.37820548000000004, 0.374179655, 0.371752375, 0.37017533, 0.37014357, 0.37187067, 0.37013452999999996, 0.37113562, 0.37041898, 0.376800725, 0.379668495, 0.38395331499999996, 0.38206488499999997, 0.37632155500000003, 0.372882275, 0.37071024999999996, 0.37234446499999996, 0.37380975, 0.37099077, 0.37127776500000004, 0.37319767499999995, 0.37060627500000004, 0.36876775500000003, 0.36831221999999997, 0.36693661499999997, 0.36509639499999996, 0.363745465, 0.36222869, 0.36221443999999997, 0.36331295500000005, 0.37214542500000003, 0.369740225, 0.36833253499999996, 0.37183566999999995, 0.37645029, 0.3765739, 0.377556475, 0.3815441, 0.376430785, 0.36897045, 0.36706897499999996, 0.364842865, 0.36281053999999996, 0.35435084000000006, 0.35040034499999995, 0.34650879500000004, 0.34262419, 0.337146875, 0.33321306, 0.33345099, 0.326720415, 0.32305095, 0.325411165, 0.33167064500000004, 0.32989036499999996, 0.35419147500000003, 0.35199241000000003, 0.35707780499999997, 0.357543355, 0.34329324499999997, 0.34409300000000004, 0.340792395, 0.334548245, 0.33051389999999997, 0.334846425, 0.33437933000000003, 0.34081889, 0.34003403499999996, 0.331503855, 0.34128221000000003, 0.33851896000000004, 0.333728015, 0.32369703, 0.317884995, 0.32577254000000005, 0.31881111, 0.31667221, 0.32005952, 0.31722892, 0.31700177, 0.321862865, 0.31932369, 0.32197329500000005, 0.31387402999999997, 0.3218799, 0.322302825, 0.32273779500000005, 0.31955818999999996, 0.345827185, 0.35434484, 0.36472159, 0.36157283999999995, 0.3572797, 0.35274571, 0.345655065, 0.34363996, 0.340863925, 0.34220006499999994, 0.3390346, 0.33599830500000005, 0.33010982499999997, 0.327688565, 0.34323709999999996, 0.351305775, 0.350218585, 0.348633115, 0.34451209, 0.34393068499999996, 0.34194818, 0.34374368, 0.3533509, 0.352765155, 0.349680505, 0.34718541, 0.34415075, 0.339301665, 0.339170155, 0.33845124499999996, 0.345836245, 0.33723881, 0.33016255, 0.336563095, 0.33748808500000005, 0.354938935, 0.354784965, 0.35808987000000003, 0.354568545, 0.36213704, 0.36848611499999995, 0.36408189, 0.35601345500000003, 0.349610665, 0.350990075, 0.34902751000000004, 0.34692527, 0.34551257, 0.341932605, 0.334175085, 0.29074665, 0.29867343, 0.30068376, 0.27727551, 0.29793791, 0.3098608, 0.31205891999999996, 0.31057299, 0.30167854, 0.298433955, 0.286881025, 0.269035965, 0.26349929, 0.26295782, 0.29021984, 0.31769971, 0.331985125, 0.329579715, 0.33299087, 0.33182976, 0.32994586499999995, 0.31493312, 0.314230735, 0.313232465, 0.31481494, 0.32718904000000004, 0.31785913, 0.29091723, 0.28516829, 0.33106247000000005, 0.330172055, 0.328836945, 0.32719375999999994, 0.32215747, 0.319679995, 0.326767075, 0.3342936, 0.33369069, 0.336612545, 0.33567141999999994, 0.305764965, 0.31700823, 0.33990412999999997, 0.34276862, 0.34155067, 0.35613601, 0.35260016, 0.34012183, 0.328186475, 0.32645947999999997, 0.32323015, 0.32649871500000005, 0.32597048, 0.32885646, 0.32143722500000005, 0.327712585, 0.318816035, 0.31886441, 0.32473632, 0.327258775, 0.328538255, 0.325062205, 0.32139492, 0.32219081000000005, 0.3193055, 0.32698871500000004, 0.328383355, 0.33027241500000004, 0.33075787, 0.33005157500000004, 0.32682638500000005, 0.32025386, 0.31706497, 0.318426975, 0.31896499, 0.318622685, 0.31535267499999997, 0.327129865, 0.333687355, 0.330965505, 0.33335385500000003, 0.331382765, 0.32973355499999996, 0.32564378499999996, 0.32602242, 0.331722495, 0.33526646, 0.32650692, 0.318280385, 0.31367023, 0.308084715, 0.31143797, 0.32096592, 0.32552517000000003, 0.32383128499999997, 0.32461702000000003, 0.319967115, 0.316561345, 0.301424795, 0.275661315, 0.285538375, 0.303444395, 0.285144835, 0.28428323, 0.285397935, 0.27116501, 0.28680799, 0.31371381, 0.325256055, 0.33182915, 0.33799824, 0.342620225, 0.33109046999999997, 0.32939225499999997, 0.325551765, 0.32296113, 0.325335755, 0.332072925, 0.32777234499999996, 0.328673945, 0.324870495, 0.318061845, 0.32244895, 0.33651065, 0.34205657, 0.347117175, 0.34000349, 0.34046305, 0.33965468, 0.33796431499999996, 0.334761895, 0.33232065499999996, 0.33104198500000004, 0.33559851, 0.33898797999999997, 0.334004115, 0.33010037, 0.32751176, 0.330367525, 0.33129119500000004, 0.331011275, 0.332123395, 0.33453932000000003, 0.336817345, 0.33504741000000005, 0.338450415, 0.34179265000000003, 0.33947531499999994, 0.34319401499999996, 0.34425264, 0.33647987999999995, 0.330650345, 0.33200111499999996, 0.33826776000000003, 0.34863273, 0.34946014499999994, 0.34421401500000004, 0.34370716, 0.35273732, 0.361075665, 0.357138085, 0.35068026500000005, 0.34829803, 0.34737769999999996, 0.348157015, 0.347683375, 0.3433171, 0.33953374, 0.33646465, 0.33627090000000004, 0.33901826, 0.33813421499999996, 0.33618253000000003, 0.329009335, 0.332745195, 0.33146301499999997, 0.33041449, 0.32251032, 0.32094102999999996, 0.32921841999999996, 0.32922317, 0.32640498, 0.32502114499999996, 0.32581792, 0.325911655, 0.33442742000000003, 0.33286289, 0.33134521499999997, 0.33015743999999997, 0.323337315, 0.31585641, 0.313611665, 0.3264373, 0.333606845, 0.33875889000000003, 0.337703135, 0.33324622499999995, 0.324362135, 0.32867935000000004, 0.33149085, 0.33018229499999996, 0.327106675, 0.33195813, 0.34315918500000003, 0.34377037, 0.34189828499999997, 0.342088895, 0.34110131000000005, 0.33902698000000003, 0.33775482500000004, 0.33553884500000003, 0.33520186, 0.33340933, 0.32892674499999996, 0.32595059499999995, 0.326658835, 0.32618769000000003, 0.32855660999999997, 0.33100862999999997, 0.32949598, 0.32783999, 0.33282583000000004, 0.33417223999999995, 0.333698, 0.321530535, 0.3203866, 0.32146867999999995, 0.31746146, 0.325155105, 0.32460265, 0.30779897500000003, 0.277731595, 0.2993318, 0.31195056, 0.31222321000000003, 0.303188415, 0.282195505, 0.25910922, 0.27079871499999997, 0.24710627500000001, 0.24363509, 0.23268891, 0.231577845, 0.24805964, 0.2857041, 0.30963245, 0.318892695, 0.314646215, 0.268279365, 0.206738195, 0.20853698, 0.218349205, 0.29992233, 0.32070505, 0.317730205, 0.310354495, 0.22162872, 0.21300671000000002, 0.20868564, 0.207690705, 0.25151667499999997, 0.294039765, 0.307046365, 0.31638483, 0.31348757, 0.289711805, 0.28996419, 0.293417245, 0.294187815, 0.27686832, 0.241444455, 0.19795015, 0.19328067499999999, 0.19452324499999998, 0.19751022, 0.19704138000000002, 0.19978017, 0.200255035, 0.265111665, 0.301484025, 0.29861966, 0.294023145, 0.295944885, 0.276243775, 0.23580805500000002, 0.216370875, 0.18896504, 0.19147551499999999, 0.18667423500000002, 0.189408765, 0.22481477000000002, 0.262739135, 0.32218456500000003, 0.31185976, 0.30676398, 0.298738235, 0.29256381000000004, 0.301543695, 0.30452251, 0.301036845, 0.306863885, 0.29338843000000003, 0.29487248, 0.3076957, 0.307321555, 0.30517392, 0.30073183, 0.299908655, 0.3084272, 0.29442468, 0.294861145, 0.316209395, 0.32120986, 0.31119723, 0.317142625, 0.325352515, 0.32911320000000005, 0.326677145, 0.335481535, 0.34154582499999997, 0.34508324, 0.34614978, 0.339988465, 0.331235095, 0.32025168, 0.29925866, 0.30613208000000003, 0.31531461499999996, 0.32096230499999995, 0.323587385, 0.31283714, 0.32364615, 0.3274491, 0.32816792, 0.32865885499999997, 0.326316955, 0.32451201500000004, 0.32294624499999997, 0.32114945, 0.320482115, 0.32031853, 0.31514857500000004, 0.31173334, 0.312252515, 0.31933526, 0.32116385000000003, 0.31929379999999996, 0.31467865, 0.31409325, 0.31497673, 0.31093843499999996, 0.308713115, 0.31888164, 0.329963015, 0.33387619999999996, 0.333730115, 0.33314618, 0.331815035, 0.33129981999999997, 0.33319035999999996, 0.328961065, 0.326912375, 0.325555455, 0.321226735, 0.31424727, 0.31597331, 0.32278061, 0.31883802, 0.316978065, 0.32252803, 0.32839308500000003, 0.32905226499999995, 0.33292046, 0.319162635, 0.31969961999999996, 0.32216318, 0.32138114, 0.329305545, 0.34030912999999996, 0.344590775, 0.35358069000000003, 0.35892902499999996, 0.36267876, 0.3623946, 0.36877821, 0.36459818, 0.35707660500000005, 0.35314164499999995, 0.34342628499999994, 0.30332022999999997, 0.29791242, 0.336744725, 0.34711359999999997, 0.353998345, 0.35105944, 0.347401625, 0.32846463, 0.32786011000000004, 0.3121984, 0.275939885, 0.24033996, 0.309534965, 0.333327155, 0.331407905, 0.339404005, 0.33902547499999997, 0.33892328, 0.338211445, 0.34195628499999997, 0.33897997500000004, 0.335871085, 0.33227216, 0.33233846, 0.330689705, 0.325394395, 0.320905195, 0.31939476, 0.31636309, 0.31500957, 0.315446595, 0.317354605, 0.31198899, 0.301116835, 0.272939195, 0.31191766, 0.31252750500000004, 0.29280138, 0.294774805, 0.28802915, 0.27682739, 0.29772329, 0.31642273, 0.314502555, 0.30763952499999997, 0.27869531, 0.22055568, 0.231318655, 0.236632785, 0.20898527, 0.205764435, 0.218232565, 0.20507697, 0.20584065, 0.19034029, 0.18501753999999998, 0.17370201500000002, 0.19044463, 0.19038805, 0.19234286999999997, 0.195611995, 0.29841418000000003, 0.283654175, 0.307276875, 0.331156055, 0.332485335, 0.330395695, 0.32889936, 0.33121031500000003, 0.329897665, 0.331333825, 0.33237250500000004, 0.331573045, 0.332109115, 0.32551187, 0.32762645, 0.3354856, 0.32739191, 0.324533305, 0.331297025, 0.32673770500000004, 0.32493426999999997, 0.32322532000000004, 0.31537011, 0.32026922999999996, 0.326292615, 0.325855775, 0.323388255, 0.324879865, 0.32487905, 0.32163927999999997, 0.318394555, 0.31006294, 0.30593423000000003, 0.30548898999999996, 0.29850434, 0.308469755, 0.31297911500000003, 0.31120989, 0.308955925, 0.305549845, 0.301244095, 0.294719925, 0.305934005, 0.3113708, 0.312157645, 0.31236401999999996, 0.30855611, 0.308440275, 0.30772765, 0.303319975, 0.28176150499999997, 0.28695869, 0.29591383, 0.29432730500000004, 0.28111534, 0.274900125, 0.19717304, 0.18590705, 0.20333120999999998, 0.257419735, 0.302943465, 0.2998248, 0.297643725, 0.29949804, 0.299868795, 0.28002706499999996, 0.22049693, 0.18474902499999998, 0.252201645, 0.26911993, 0.284448345, 0.227298675, 0.279314385, 0.33153903999999995, 0.319347, 0.31660315499999997, 0.320273745, 0.315407245, 0.316318985, 0.312074855, 0.32091932, 0.30340462, 0.310548245, 0.310185445, 0.308915655, 0.30880456, 0.306203485, 0.29663153999999997, 0.282496505, 0.2711635, 0.28586931, 0.301114235, 0.30795138, 0.32398486499999996, 0.33636536499999997, 0.33001538500000005, 0.30138608, 0.31329655500000003, 0.3203606, 0.313501945, 0.25454369499999996, 0.22339026, 0.228098825, 0.23650085, 0.235892835, 0.29289671500000003, 0.27188664, 0.299933175, 0.29364260999999997, 0.26024317, 0.27525928, 0.30296831999999996, 0.27936672, 0.266804865, 0.21540842000000002, 0.22808505, 0.24120676, 0.26358367, 0.263201645, 0.28556242, 0.27127866, 0.27492214, 0.274521485, 0.28994074000000003, 0.29444948, 0.30560078, 0.30059391, 0.290793505, 0.29802465, 0.28725984, 0.27637338, 0.302691715, 0.29710763, 0.26935119, 0.25830115, 0.31519083999999997, 0.319088365, 0.320453575, 0.32101959, 0.32355528499999997, 0.320889865, 0.316050115, 0.266824515, 0.279523225, 0.28324143, 0.297962515, 0.283014695, 0.27820691, 0.264885665, 0.25128210500000003, 0.208455205, 0.1992699, 0.196557755, 0.19746725999999998, 0.19888450500000002, 0.197698645, 0.26658669, 0.289587885, 0.24304187, 0.20381861499999998, 0.203946665, 0.2057273, 0.201196465, 0.201430575, 0.20290056, 0.186259425, 0.18080264499999998, 0.183672795, 0.183418415, 0.18221791499999998, 0.18016434, 0.18190166000000002, 0.18259404, 0.18290724, 0.187459865, 0.182437605, 0.18032263, 0.190142005, 0.21573136, 0.21510908, 0.22124652, 0.26498388, 0.2581487, 0.20143989, 0.197731085, 0.24372820999999997, 0.2967317, 0.293341525, 0.263785455, 0.26274081, 0.30779175999999997, 0.29530428000000003, 0.236854245, 0.250148295, 0.24710023500000003, 0.26655516, 0.24222326, 0.27150184499999996, 0.27210187999999996, 0.220458315, 0.25952332, 0.32017785000000004, 0.34005621499999994, 0.34548938, 0.34956609, 0.33780704, 0.316158775, 0.2962984, 0.293458175, 0.301811185, 0.24695815, 0.243316685, 0.271479125, 0.309437285, 0.29818423, 0.298915985, 0.31341636, 0.316594685, 0.303257225, 0.3049353, 0.310304765, 0.311030035, 0.35112984500000005, 0.32895089499999997, 0.3149097, 0.320869895, 0.319896845, 0.29994831, 0.31436336, 0.31033816999999997, 0.31499622, 0.32489002499999997, 0.32855941, 0.32668266500000004, 0.326457885, 0.327649955, 0.323035335, 0.318948125, 0.28374395, 0.27862872, 0.2850321, 0.303052445, 0.265173275, 0.28651931999999997, 0.28278212, 0.309872315, 0.304599305, 0.28999666, 0.294512785, 0.274154205, 0.22028897, 0.187811825, 0.26557091499999996, 0.27262773, 0.29561767499999997, 0.31324350500000003, 0.309317155, 0.31128343, 0.30762338, 0.304679885, 0.304353025, 0.30496336, 0.295055995, 0.28460453, 0.239332065, 0.270433315, 0.28828532, 0.265572965, 0.264469735, 0.26659395, 0.217674585, 0.22628674000000001, 0.22355026, 0.23688193000000002, 0.25692033999999997, 0.26326243, 0.224362055, 0.21115865499999997, 0.235638045, 0.28591979, 0.292299515, 0.29863838000000004, 0.2976056, 0.30423419, 0.31748041, 0.31599065, 0.310917875, 0.30466334, 0.31046984, 0.310015965, 0.301955935, 0.247340485, 0.234925545, 0.240957615, 0.256902635, 0.25986429, 0.28895912, 0.27232333000000003, 0.285179935, 0.292360705, 0.299537935, 0.293829285, 0.238906485, 0.20633163499999999, 0.19020990000000002, 0.2054973, 0.21746872499999997, 0.2033276, 0.22058511, 0.27033149, 0.28594606, 0.21494348, 0.189964625, 0.19101989, 0.19431647000000002, 0.197507465, 0.196046155, 0.220917365, 0.20048526, 0.19088859500000002, 0.197571515, 0.19336296, 0.23587716, 0.278264715, 0.234207955, 0.265585815, 0.27855576, 0.298130405, 0.293776135, 0.28949617, 0.28709572, 0.28335391, 0.21001515, 0.28406145, 0.264775355, 0.265120425, 0.277019945, 0.25370329999999996]]","[17, 28, 37, 41, 107, 113, 114, 115, 120, 126, 129, 133, 146, 147, 149, 151, 152, 154, 159, 166, 176, 178, 182, 183, 187, 189, 193, 195, 196, 202, 204, 205, 206, 207, 208, 209, 216, 224, 228, 229, 233, 237, 238, 244, 257, 268, 274, 286, 300, 302, 310, 311, 317, 331, 333, 334, 337, 339, 342, 345, 347, 350, 355, 356, 371, 374, 377, 382, 395, 396, 397, 405, 408, 412, 417, 418, 420, 425, 431, 432, 434, 443, 450, 455, 462, 467, 474, 502, 505, 521, 523, 528, 529, 535, 542, 563, 564, 566, 567, 571, 572, 596, 600, 601, 605, 606, 614, 619, 624, 632, 633, 647, 658, 665, 667, 680, 681, 685, 687, 694, 696, 697, 699, 700, 707, 708, 710, 711, 712, 715, 721, 724, 728, 742, 761, 765, 766, 768, 775, 794, 800, 801, 806, 809, 818, 821, 823, 830, 834, 850, 868, 872, 874, 876, 877, 880, 887, 895, 900, 901, 913, 914, 920, 924, 932, 934, 944, 945, 953, 965, 967, 969, 972, 981, 989, 990, 994, 995, 1004, 1015]","[-1, -1, -1, 0, 2, 3, 4, 1, 6, 7, 5, 10, 8, 9, 12, 13, 14, 11, 16, 15, 17, 20, 19, 18, 22, 21, 23, 25, 26, 24, 27, 28, 29, 30, 32, 33, 34, 35, 36, 37, 38, 31, 40, 41, 42, 39, 43, 44, 45, 46, 47, 49, 50, 51, 52, 54, 48, 55, 56, 57, 58, 53, 60, 59, 62, 61, 63, 64, 66, 65, 68, 67, 70, 71, 72, 73, 74, 75, 76, 69, 78, 77, 79, 82, 81, 83, 84, 85, 87, 80, 86, 89, 90, 92, 91, 93, 94, 95, 88, 97, 96, 98, 100, 101, 102, 99, 104, 103, 106, 105, 108, 109, 107, 110, 112, 113, 111, 115, 116, 117, 114, 119, 118, 121, 120, 123, 122, 125, 126, 127, 124, 129, 130, 131, 132, 133, 134, 135, 137, 136, 138, 128, 140, 139, 142, 143, 144, 145, 146, 141, 148, 147, 150, 152, 149, 153, 151, 155, 156, 157, 158, 154, 159, 160, 163, 162, 161, 165, 164, 167, 168, 166, 169, 170, 172, 174, 171, 173, 176, 175]","[-1, 0, 1, 2, 3, 4, 5, 6, 7, 8, 9, 9, 11, 12, 13, 14, 15, 16, 17, 18, 19, 19, 21, 22, 23, 24, 25, 26, 27, 28, 29, 30, 31, 32, 33, 34, 35, 36, 37, 38, 39, 40, 41, 42, 43, 44, 45, 46, 47, 48, 49, 50, 51, 52, 53, 53, 55, 56, 57, 58, 59, 60, 61, 62, 63, 64, 65, 66, 67, 68, 69, 70, 71, 72, 73, 74, 75, 76, 77, 78, 79, 80, 81, 81, 83, 84, 85, 86, 86, 88, 89, 90, 91, 91, 93, 94, 95, 96, 97, 98, 99, 100, 101, 102, 103, 104, 105, 106, 107, 108, 109, 110, 111, 112, 113, 114, 115, 116, 117, 118, 119, 120, 121, 122, 123, 124, 125, 126, 127, 128, 129, 130, 131, 132, 133, 134, 135, 136, 136, 138, 139, 140, 141, 142, 143, 144, 145, 146, 147, 148, 149, 150, 151, 151, 153, 154, 155, 156, 157, 158, 159, 160, 161, 162, 162, 164, 165, 166, 167, 168, 169, 170, 171, 172, 173, 173, 175, 176, 177, 178]","[2, 1, 0, 2, 0, 2, 0, 1, 0, 1, 2, 2, 0, 1, 0, 1, 0, 2, 0, 1, 2, 2, 1, 0, 1, 2, 0, 2, 0, 1, 2, 0, 1, 2, 1, 2, 1, 2, 1, 2, 1, 0, 1, 0, 1, 2, 0, 1, 2, 0, 1, 0, 1, 0, 1, 1, 2, 1, 2, 1, 2, 0, 2, 1, 2, 0, 1, 2, 1, 0, 1, 2, 1, 2, 1, 2, 1, 2, 1, 0, 1, 2, 0, 0, 2, 0, 2, 0, 0, 1, 2, 1, 2, 2, 1, 2, 1, 2, 0, 2, 1, 0, 1, 0, 1, 2, 1, 0, 1, 2, 1, 2, 0, 1, 0, 1, 2, 1, 2, 1, 0, 1, 2, 1, 0, 1, 2, 1, 2, 1, 0, 1, 0, 1, 0, 1, 0, 1, 1, 0, 1, 2, 1, 0, 1, 0, 1, 0, 1, 2, 1, 0, 1, 1, 2, 1, 0, 1, 0, 1, 0, 2, 1, 0, 0, 1, 2, 1, 0, 1, 0, 2, 1, 0, 1, 1, 2, 0, 2, 1]","[140.75740573529413, 125.00344571428572, 123.72244671726757, 85.78358663239074, 114.20585589009123, 172.29102372602742, 190.51588928571428, 83.27587682027651, 130.31258190775682, 87.82654546594982, 103.11470617834395, 82.23597916317992, 164.43536435643563, 61.32343338129496, 126.14624719999998, 74.67652592920352, 160.8904428571429, 161.3591140540541, 139.96504638211385, 79.69732843629343, 160.20717435064935, 130.41917764705883, 70.5620447643979, 128.94344700564972, 73.47352833698031, 160.65851666666669, 157.34968380952384, 162.6422739, 133.16877621951218, 90.7693957781457, 165.4073505228758, 132.42087275684932, 91.36097139240508, 184.39222248407646, 53.80367086206896, 168.88150911111111, 68.59995820734342, 141.4778068845619, 88.60841229885058, 134.51817129476584, 54.571064148148146, 96.62804807734805, 95.75188243902439, 108.17312876106193, 55.90287763285024, 148.83159008097167, 176.7700112, 75.85209963487333, 181.50033716049384, 143.39998208556148, 99.8391387066246, 172.44618608695652, 54.55150769961977, 125.17310390342053, 66.09246965794769, 22.0390745, 102.0637115873016, 85.48587919811322, 161.76940886075948, 89.27633597426471, 158.75953131979696, 121.54430666666667, 101.99693822580645, 60.568292390078916, 107.7736608139535, 138.00119723880596, 18.320200457142857, 103.02446032786885, 92.02995680685358, 131.63138483146068, 77.72612039215686, 131.45380453932583, 46.95504430420712, 159.76850833333333, 79.42137683111955, 147.46488343283582, 69.25590500000001, 75.6455916262136, 102.66251984848485, 144.82384174311926, 53.88222366666667, 95.74332141333332, 130.14080418128654, 146.6303022767857, 175.2570373509934, 98.03826974093265, 168.03616654761908, 136.21302567264573, 127.94393868525896, 86.11932442006268, 189.45691975103736, 102.02091157894738, 131.30350727272727, 73.83250562841529, 69.36896073770492, 100.62063104166668, 96.29614444987774, 196.40364035294115, 148.88499363636367, 119.40665442622951, 61.314936914893615, 134.6094756852792, 47.09602525974026, 72.69948928104576, 100.41277135278513, 151.50343999999998, 81.16329947586208, 133.2043382524272, 54.49446257575758, 63.344030000000004, 46.45051463414634, 119.81737377224198, 115.95217472602738, 84.52142032738095, 96.86254506024096, 73.29333974474474, 153.60903959016392, 83.09420863636363, 125.77575618705035, 53.705259301587304, 152.22926698412695, 61.64638857142856, 180.10050871559633, 22.03603, 133.2719712903226, 81.69710235109719, 70.54381107438016, 48.93504274774775, 52.71937030303031, 22.52265688888889, 162.92242399999998, 53.79493686746988, 78.59662664835164, 48.604375223880595, 105.84251760806919, 92.89122648876405, 153.52784390243903, 34.9150972, 79.4615992384106, 139.16355, 61.862202638743454, 132.06139614285712, 54.39593832167832, 90.38189491935485, 69.0366124137931, 154.08371468292682, 68.56040866666667, 126.7351646557377, 65.17244324786326, 148.04095619658116, 90.60043434108528, 144.55634719101124, 83.28578332061068, 54.45245063829788, 221.2542526851852, 79.02310212837838, 123.5153668235294, 48.35458293981482, 155.14100816326533, 71.42877782505911, 116.25718536649215, 183.87130165217388, 69.13130173076922, 157.82930463829786, 110.97231976190476, 23.696328317757008, 124.00881068965518, 65.68895440890124, 136.16280701834864, 23.723086400000003, 154.30015886138617, 142.15282295918368, 18.54489574468085, 119.59368169761272, 63.38902152131783, 35.28789425925926, 41.94953, 106.82474485981308, 80.8917528125, 56.68702144351464]","[0.010537363352941177, 0.026123536000000003, 0.016780800095825426, 0.0105069315218509, 0.017673406254402713, 0.03279926723835616, 0.06406100285714285, 0.04319325473732719, 0.025970679090146748, 0.06529275494623656, 0.012073430917197453, 0.015249428970711295, 0.02222955638613861, 0.01652981269064748, 0.020239354592000002, 0.03109584838938053, 0.028631002753246745, 0.013304792162162163, 0.01668958799186992, 0.03910330088030888, 0.017866605194805197, 0.00968501974117647, 0.012702892465968587, 0.024585497423728814, 0.04847900086214443, 0.012129013727272727, 0.02211950141904762, 0.017719644785, 0.02396099186585366, 0.04662571223178808, 0.017729211790849672, 0.02889858198630137, 0.045054485367088594, 0.028784557872611468, 0.006591108775862068, 0.01331852651111111, 0.027956100844492442, 0.021312742043115437, 0.045463258752873555, 0.015745475986225894, 0.007370430188888888, 0.0150958101160221, 0.05867614192682927, 0.009547530171091445, 0.015029524570048313, 0.015762863611336032, 0.032620944, 0.05174444661251863, 0.008974225308641975, 0.01103246679144385, 0.050247513451104106, 0.02495346920289855, 0.023664324901140683, 0.011730272219315895, 0.04057151141448692, 0.019783679575, 0.012982991365079365, 0.07637431524528301, 0.028387268784810123, 0.05602682048713235, 0.014569262898477157, 0.01366686842857143, 0.0067311311290322575, 0.0319123060259301, 0.008546897808139534, 0.007327287731343285, 0.009011102085714285, 0.007237165270491804, 0.05200538591744548, 0.019641318423220974, 0.030156389352941175, 0.01599588534157303, 0.007449275964401293, 0.013005005416666665, 0.05396311034535104, 0.013982258492537314, 0.03812144612857143, 0.007441421441747572, 0.015360323166666665, 0.020228674298165137, 0.04199788519333334, 0.010327513813333333, 0.015067812274853801, 0.01658867146875, 0.013372840178807946, 0.011944216259067355, 0.01458428842857143, 0.015853174964125562, 0.014478311999999998, 0.04667942159561129, 0.030382686796680502, 0.07486104413533834, 0.01927048050909091, 0.005306615770491803, 0.008559608770491804, 0.032749276729166665, 0.05133751543276284, 0.028454092264705882, 0.01833016151948052, 0.02594180917213115, 0.04137071983687944, 0.01591798840609137, 0.02406433103030303, 0.011258967055555557, 0.06539767761007957, 0.024182573426666666, 0.060655443263448273, 0.013792230718446602, 0.01165780703787879, 0.00598299072, 0.030625011414634147, 0.01541463112811388, 0.011763447428082191, 0.03807374164880952, 0.008962016554216867, 0.047402950496997, 0.024510194524590165, 0.08100259591978609, 0.013192493654676257, 0.02192517687936508, 0.01608514296825397, 0.03490381519047619, 0.015533250798165137, 0.012523985666666664, 0.013684242548387094, 0.05097154308777429, 0.007375458785123966, 0.025612198054054056, 0.009526017848484848, 0.011597734444444445, 0.026645702119999996, 0.03545892111144578, 0.00937408398901099, 0.016408738537313432, 0.011633618963976947, 0.05426554522191013, 0.0150633966097561, 0.02701575452, 0.05156214791390728, 0.013676852500000001, 0.030787866657591628, 0.017517914257142855, 0.021380553762237763, 0.0072127890887096775, 0.027988957181353764, 0.01867974267804878, 0.040929835552380944, 0.01556851366557377, 0.023506270833333336, 0.012377227008547008, 0.05835957627713178, 0.01605990711235955, 0.0427899903129771, 0.029811814287234038, 0.018341779037037036, 0.06427999756418919, 0.012393126017647058, 0.02039272929398148, 0.016070337979591835, 0.056105190931442075, 0.017125987942408376, 0.029215650086956518, 0.019241486576923077, 0.015696842753191487, 0.011909921896825394, 0.01923128398130841, 0.020109250724137932, 0.04414949717663421, 0.015428328449541284, 0.008552439879999998, 0.017149588806930693, 0.010388873591836734, 0.014591436319148937, 0.01289225423342175, 0.036816222167635665, 0.017069775925925925, 0.004116100188679246, 0.01179021121495327, 0.01250471640625, 0.03311073733158996]","[0.09136827079411765, 0.04303468517857143, 0.04151281183450664, 0.04956218845244217, 0.028397215300933584, 0.030961917723561647, 0.026756317285714284, 0.02895451209124424, 0.06610718699161425, 0.04769893009480287, 0.020724290452229302, 0.0347310229623431, 0.022660679, 0.06999172933093524, 0.027633235904, 0.06708036530973452, 0.009082300906493505, 0.03176510851351352, 0.02581919730487805, 0.042796309484362936, 0.06417028664675326, 0.043459086929411764, 0.05650028705235601, 0.040516109384180786, 0.04361963839824946, 0.08621066904545456, 0.04183912383809524, 0.02812624579, 0.030185480353658534, 0.05173860958046358, 0.0849989780522876, 0.044877577936643834, 0.09107406598734177, 0.027488659764331208, 0.043403072068965515, 0.016620338066666667, 0.09763978185334775, 0.04525468193880389, 0.04553510248908046, 0.04583845099173554, 0.026529489874074073, 0.03273954458983425, 0.0754025460609756, 0.058033483589911505, 0.07220354080676328, 0.04810080718218623, 0.10919038411999998, 0.04307365226579731, 0.049749597148148146, 0.024387891213903737, 0.03225033135473186, 0.034053073327536224, 0.04279812661501901, 0.03575730487525151, 0.04458487352940643, 0.0291603775, 0.051654093181746026, 0.04334185696226415, 0.029770741151898737, 0.0672856406694853, 0.06352061474111675, 0.07557906152380951, 0.04486325516129032, 0.05992904953393461, 0.04474960349612403, 0.03813470297014925, 0.01879417625142857, 0.03653341790983606, 0.0751059357169782, 0.045122746576779026, 0.046491205098039216, 0.0513067606741573, 0.0346453293171521, 0.03033377386111111, 0.051707188642884254, 0.03985742150746268, 0.11104367479285716, 0.04920101531310679, 0.0424953581969697, 0.02574479217431193, 0.058817968333333324, 0.033748174997333326, 0.04609934635818713, 0.03019672264285714, 0.02969768312251655, 0.04787432171502591, 0.02964016434126984, 0.028514874006681613, 0.04241863219123507, 0.04513282996315047, 0.04107016716182572, 0.05019171395488721, 0.03205689870909091, 0.031465178852459016, 0.10652156172950819, 0.019043770291666665, 0.055542918208312954, 0.03553368464705882, 0.09738289824675324, 0.0735657674180328, 0.025535727996453903, 0.02915759464467005, 0.06804035884415584, 0.031977183542810456, 0.06966943898965518, 0.05011042229333333, 0.06476571573828967, 0.03329234627508091, 0.029244432708333334, 0.041896446, 0.0378645752502439, 0.023710824302491107, 0.03385981685719178, 0.07102027147321428, 0.024253846927710845, 0.0638527536605105, 0.03221857712295082, 0.05449570742510695, 0.018686393201438847, 0.10736359792698412, 0.07528112875396825, 0.07926108682539681, 0.02632949924770642, 0.016570355555555555, 0.05727925783870968, 0.10007836731034482, 0.07168128823140495, 0.05271906103648649, 0.08447820121212123, 0.003316840888888889, 0.040516178119999996, 0.0278809403373494, 0.025795292554945053, 0.043362892079602, 0.0437323191721902, 0.04588354817584269, 0.030488221292682926, 0.05698689896, 0.0708963996218543, 0.039100807875000004, 0.06816253171727749, 0.03245282056428571, 0.08613682099650351, 0.06510518441129032, 0.08646115148505747, 0.022056397293658533, 0.06551011309523809, 0.038143419619672124, 0.0568794538931624, 0.043129170897435905, 0.04227877460486434, 0.028524218491011236, 0.050719714190076336, 0.09772195961702125, 0.017779335287037037, 0.11163142302027027, 0.04514919697647059, 0.060965905423611105, 0.02749123565306123, 0.04863180083687943, 0.03873035063010472, 0.05964488536521739, 0.07916942239230769, 0.060163931434042556, 0.03406041033333333, 0.04055809939252337, 0.08603042903448276, 0.07297862263588319, 0.04923558117981652, 0.03348835866666667, 0.026245715631683167, 0.05869312606122449, 0.029428199999999998, 0.027062796803713526, 0.037221720436821704, 0.0761719212962963, 0.012369132075471698, 0.026100285542056078, 0.14236040024999996, 0.06565031373535564]","[0.19235425897058822, 0.23165567192857145, 0.1223489895768501, 0.11253962119023135, 0.09543942387778484, 0.08201203576986302, 0.09699257967857143, 0.13261319484792627, 0.1382363715073375, 0.16003895896774192, 0.06103952891082803, 0.08696852179079498, 0.12779225663366334, 0.17165891848920864, 0.10235422368000002, 0.3614848373097345, 0.06563880551948054, 0.13805238513513512, 0.10631768702439025, 0.15009434540926642, 0.12629501071428573, 0.09809365623529412, 0.1121730957591623, 0.14335497305084746, 0.1334915242166302, 0.1292573193939394, 0.17421765380952378, 0.091938273355, 0.10574566854878047, 0.160730490280298, 0.15966210915032678, 0.1301317069297945, 0.18518822392405063, 0.08553903974522294, 0.24518156051724138, 0.10790984966666667, 0.24325454781217737, 0.10694799666620305, 0.132892027, 0.12112591239669421, 0.11344257307037038, 0.10695366120110496, 0.2683124671951219, 0.1412144083480826, 0.23465139159420287, 0.10739574218623482, 0.2345095936, 0.15378488115946348, 0.13727063592592592, 0.10410832587700534, 0.120526899318612, 0.1543815796753623, 0.18987743553992395, 0.09017458941851107, 0.11031897096237425, 0.06260219000000002, 0.14800399952380952, 0.11101380946698114, 0.09506083455696203, 