,experiment_id,num_time_steps_in_coordination_scale,fnirs_time_steps_in_coordination_scale,final_team_score,final_ai_score,team_score_per_second,ai_score_per_second,s1_d1,s1_d2,s2_d1,s2_d3,s3_d1,s3_d3,s3_d4,s4_d2,s4_d4,s4_d5,s5_d3,s5_d4,s5_d6,s6_d4,s6_d6,s6_d7,s7_d5,s7_d7,s8_d6,s8_d7,left_hemisphere,right_hemisphere,medial,average
0,exp_2022_09_30_10,70,"[0, 1, 2, 3, 4, 5, 6, 7, 8, 9, 10, 11, 12, 13, 14, 15, 16, 17, 18, 19, 20, 21, 22, 23, 24, 25, 26, 27, 28, 29, 30, 31, 32, 33, 34, 35, 36, 37, 38, 39, 40, 41, 42, 43, 44, 45, 46, 47, 48, 49, 50, 51, 52, 53, 54, 55, 56, 57, 58, 59, 60, 61, 62, 63, 64, 65, 66, 67, 68, 69]",10,5,"[0, 0, 0, 0, 0, 0, 0, 0, 0, 0, 0, 0, 0, 0, 1, 1, 2, 2, 2, 2, 3, 3, 3, 3, 3, 3, 4, 4, 4, 4, 4, 4, 4, 5, 5, 5, 5, 5, 5, 5, 5, 5, 5, 5, 5, 5, 5, 5, 5, 5, 5, 5, 5, 5, 5, 5, 5, 5, 5, 5, 5, 5, 5, 5, 5, 5, 5, 5, 5, 5, 5, 5, 5, 5, 5, 5, 5, 5, 5, 5, 5, 5, 5, 6, 6, 6, 7, 7, 7, 7, 7, 7, 7, 7, 7, 7, 7, 7, 7, 7, 7, 7, 7, 7, 7, 7, 8, 8, 8, 8, 8, 8, 8, 8, 8, 8, 9, 9, 10, 10, 10, 10, 10, 10, 10, 10, 10, 10, 10, 10, 10]","[0, 0, 0, 0, 0, 0, 0, 0, 0, 0, 0, 0, 0, 0, 0, 0, 0, 0, 0, 0, 0, 0, 0, 0, 0, 0, 0, 0, 0, 0, 0, 0, 0, 0, 0, 0, 0, 0, 0, 0, 0, 0, 0, 0, 0, 0, 0, 0, 0, 0, 0, 0, 0, 0, 1, 1, 1, 1, 1, 1, 1, 1, 1, 1, 1, 1, 2, 2, 2, 2, 3, 3, 3, 3, 3, 3, 3, 3, 3, 3, 3, 3, 3, 3, 3, 3, 3, 3, 3, 3, 3, 3, 3, 3, 3, 3, 3, 4, 4, 4, 4, 5, 5, 5, 5, 5, 5, 5, 5, 5, 5, 5, 5, 5, 5, 5, 5, 5, 5, 5, 5, 5, 5, 5, 5, 5, 5, 5, 5, 5, 5]","[[1.2651724500000001, 1.1471296, 1.1692606, 1.28584515, 1.3318071, 1.1805986, 0.891472175, 0.677381055, 0.708050035, 0.93390745, 1.1325580499999999, 1.1205158, 0.89264426, 0.57925081, 0.32375737, 0.20820889999999997, 0.23276307, 0.315694225, 0.334757525, 0.21724608499999998, 0.00304343321, -0.19097796, -0.277844635, -0.282004885, -0.306321885, -0.40856583, -0.541583725, -0.623455095, -0.62123126, -0.558195515, -0.48364773499999997, -0.451426605, -0.49238875, -0.58337488, -0.66143807, -0.686866695, -0.675471715, -0.659809575, -0.6444499399999999, -0.611398345, -0.5557521950000001, -0.50703332, -0.50619568, -0.557452125, -0.61027518, -0.59568557, -0.488101185, -0.34145269999999994, -0.25108898, -0.255327215, -0.3002293, -0.315039565, -0.277814955, -0.21312765, -0.16165182, -0.15156852499999998, -0.17938973, -0.22056139000000002, -0.265681285, -0.325819795, -0.38644960500000003, -0.38737698000000004, -0.297142585, -0.186024205, -0.15844706, -0.23243982, -0.32234501000000004, -0.31816402, -0.1612822165, 0.128308665546], [-0.0672367545, -0.0411496485, -0.031971889999999996, -0.061332744, -0.12276074149999999, -0.1783223, -0.17766277500000002, -0.09460390800000001, 0.045307543590000006, 0.17794964, 0.24176037, 0.20535644, 0.077819670855, -0.09002927664999999, -0.22603735, -0.27442172, -0.22773855, -0.128807635, -0.035239111645, 0.017782436938999998, 0.023479068000000002, -0.0036459445115, -0.036280671, -0.051055289000000004, -0.043827829, -0.03203448, -0.0383555695, -0.06951233, -0.116804088, -0.17057061, -0.222678455, -0.256639015, -0.24440881, -0.16808902499999998, -0.0528399129615, 0.04209290615, 0.0782240825, 0.064883534, 0.0356231555, 0.0198060385, 0.028759169, 0.049944957, 0.05029250700000001, -0.0028897558904999996, -0.10448778450000001, -0.19629859, -0.21553279, -0.16322040999999998, -0.1043125675, -0.09643452599999999, -0.13367631, -0.16147884999999998, -0.13899308, -0.0790669135, -0.0199924192395, 0.02327106545, 0.059355944, 0.08925987600000002, 0.0962111875, 0.06972727299999999, 0.034444444, 0.0362283175, 0.09005604, 0.154938565, 0.164271595, 0.082927144, -0.0551569681435, -0.16952545, -0.19485074000000002, -0.12136053349999999], [-0.0911291595, 0.014502690771, 0.104378778, 0.0987430075, -0.05237308835500001, -0.301865275, -0.5065305999999999, -0.525252945, -0.33305557999999996, -0.03507491377, 0.22767651, 0.37085621, 0.38497571999999997, 0.30646514, 0.186267835, 0.072159169, 0.002114909992, 0.00031993593750000003, 0.0629740025, 0.14696676, 0.19252309, 0.16919199, 0.0971285185, 0.02198483231, -0.0243117274, -0.038615870499999996, -0.0338828175, -0.022403331999999998, -0.014122909500000001, -0.017486695, -0.0314786085, -0.041314223, -0.027870119, 0.0188218987835, 0.095665753, 0.184988865, 0.25237052, 0.25722516, 0.18374947, 0.066778835, -0.024740614439, -0.037832208, 0.0262976548905, 0.11725572749999999, 0.177750555, 0.18631478, 0.16173674500000002, 0.13039013, 0.0971155495, 0.043597450499999996, -0.04938785464499999, -0.16923744500000001, -0.2595032, -0.254276365, -0.1347634555, 0.04817036773, 0.20637081, 0.266767815, 0.20291884, 0.04056416994, -0.15141917, -0.288714875, -0.315414325, -0.23953337000000002, -0.12594859149999998, -0.043929187, -0.020717146999999998, -0.042238298, -0.08188210950000001, -0.121063155]]","[[1.45181655, 1.3093880999999998, 1.2071066000000001, 1.17373005, 1.20184855, 1.2229751, 0.94072626, -0.0260026968, -1.55952465, -2.8998338, -3.4311100499999996, -3.2937513000000003, -3.01003535, -2.8542367, -2.7613657000000003, -2.64972425, -2.5769532500000003, -2.57601765, -2.57966995, -2.55644445, -2.5681831999999996, -2.65967075, -2.70866295, -2.4405084500000003, -1.7105579, -0.7634691499999999, -0.0490667619, 0.221908965, 0.201097505, 0.16835545, 0.277192745, 0.47406877999999997, 0.59296036, 0.531170205, 0.364298805, 0.28474041, 0.40838550500000004, 0.66599882, 0.89151761, 0.99542869, 1.0100495, 0.988811415, 0.9407010149999999, 0.8789792799999999, 0.88324522, 1.0533404450000001, 1.3517674, 1.5279448500000001, 1.3417750499999999, 0.8868377150000001, 0.49369042, 0.35316128999999996, 0.42142166000000003, 0.58803077, 0.7682436850000001, 0.872327995, 0.82791913, 0.6557443150000001, 0.47013207, 0.433198175, 0.6749085499999999, 1.153907505, 1.6305006, 1.879205, 1.89937725, 1.85551575, 1.8256321500000001, 1.67535885, 1.25288135, 0.68514149], [0.0288049301585, 0.06558448850000001, 0.049054651, -0.0031582273231500002, -0.055940923, -0.079211588, -0.062992126, -0.015243780410000001, 0.046325499, 0.09386413299999999, 0.102198642, 0.060137945000000005, -0.028633808729500002, -0.134582956, -0.20843301, -0.215499185, -0.15845156, -0.072401914, 0.0045073245105, 0.051141769999999996, 0.059161331500000004, 0.030135410249999998, -0.0212759220975, -0.063396047, -0.0665669415, -0.03191534, 0.0050371112, 0.004573063023, -0.051023217, -0.139491129, -0.21126951, -0.22717410000000002, -0.17376397000000002, -0.06687452145, 0.043188658635, 0.0959024465, 0.07055004549999999, 0.00291551078, -0.0483317335, -0.0441886945, 0.014106482755, 0.0850730785, 0.107176568, 0.041060695957500004, -0.084561081, -0.18694527, -0.20368663, -0.13929667950000002, -0.051171723, -0.0096270351, -0.044966087, -0.11404552849999999, -0.142481095, -0.114074282, -0.0735977385, -0.0566600055, -0.061336404, -0.0698116465, -0.080716518, -0.101514931, -0.112167855, -0.075021056, 0.013457526160999999, 0.0974662345, 0.1135804675, 0.0569767375, -0.019343147091, -0.058593323, -0.0465882955, -0.0041109185132], [0.004863177352, 0.036301604, 0.040932079999999996, 0.01101206775, -0.049162784, -0.11905359750000001, -0.1658541, -0.167196165, -0.129437845, -0.0759322965, -0.029015183000000003, -0.0006740505449999999, 0.00750268705, -0.001425165597, -0.0229975075, -0.0474959685, -0.058687329, -0.0459348935, -0.0099221818805, 0.038751388, 0.08059935, 0.0985764485, 0.089918865, 0.0682356185, 0.048932248500000004, 0.035094732999999996, 0.024454342000000004, 0.019705369, 0.025888078999999998, 0.0403876315, 0.055172663999999996, 0.07029300799999999, 0.09433302149999999, 0.123295505, 0.13303359, 0.10192060550000001, 0.030525593963, -0.0568334715, -0.12467803, -0.147565725, -0.12255632450000001, -0.06862931, -0.010770843685, 0.0366243345, 0.06825993999999999, 0.079517465, 0.0663182555, 0.0324272115, -0.0116151111295, -0.052121244000000004, -0.0781178525, -0.0865915675, -0.078866714, -0.059127419, -0.0342408285, -0.0110595446, 0.004993500816, 0.0075133176000000005, -0.0103696401415, -0.0504225885, -0.1022993405, -0.14134388, -0.14581541, -0.11293314049999999, -0.059039807, -0.010200171834, 0.0151605999, 0.020717273, 0.027689339999999996, 0.044279358000000005]]","[[1.1531697, 0.97611923, 0.904088185, 0.98531645, 1.08433725, 1.017847075, 0.78652512, 0.6360452750000001, 0.81928114, 1.2744167, 1.6572557, 1.70875025, 1.4623811, 1.11590517, 0.83183561, 0.6788843149999999, 0.65402417, 0.684668805, 0.660707015, 0.525504105, 0.32711278, 0.162036205, 0.0632025525, -0.047321356825, -0.25794912, -0.523612465, -0.69687864, -0.7113319149999999, -0.6498694500000001, -0.6260960250000001, -0.6723488500000001, -0.7497860799999999, -0.8060023599999999, -0.8077917499999999, -0.7594007349999999, -0.714448075, -0.74170569, -0.8478057099999999, -0.9486108350000001, -0.94334761, -0.8164481650000001, -0.6615014100000001, -0.603120965, -0.6885731900000001, -0.847831145, -0.94202619, -0.854915995, -0.583319665, -0.261995905, -0.059296512999999995, -0.0392101415, -0.14799990899999999, -0.28819818999999997, -0.377279945, -0.373256395, -0.28572688500000004, -0.170542065, -0.102929949, -0.144948375, -0.310906955, -0.526760855, -0.64164132, -0.55515812, -0.343009415, -0.188832435, -0.20798998999999999, -0.363405765, -0.503914235, -0.45866603499999997, -0.14913528435], [-0.21854020500000002, -0.291605715, -0.30491954499999996, -0.29472769499999996, -0.30447165, -0.33606853000000003, -0.33865270000000003, -0.254030145, -0.078304287405, 0.1196635085, 0.23875543, 0.20925353000000002, 0.039539710085, -0.1831985925, -0.34795846500000005, -0.38913460499999997, -0.315513445, -0.18878567000000002, -0.0789807945, -0.030847883500000003, -0.053065862, -0.1176370895, -0.172402775, -0.17583329, -0.129676352, -0.0764517925, -0.060218721999999995, -0.089413195, -0.14661509, -0.22041354500000002, -0.299667805, -0.348072375, -0.31757711499999997, -0.198297145, -0.047459153625, 0.053314616, 0.0764803075, 0.060406476, 0.051072502, 0.06528591, 0.096203809, 0.11673296999999999, 0.08378722350000001, -0.0259645164853, -0.171926285, -0.26280888, -0.24346993, -0.16164445, -0.11795982499999999, -0.15363756, -0.21388285499999998, -0.21875723, -0.151884785, -0.07017365, -0.0255644865, -0.0067786385360000005, 0.020067565, 0.0485748325, 0.0440781675, 0.0048729986565, -0.014719101699999999, 0.039346999625, 0.14351518, 0.20113558999999998, 0.13352991749999998, -0.03854448511, -0.20246021, -0.24896612999999998, -0.1603541765, -0.0029717240199999993], [-0.09487504299999999, -0.014283952785, 0.038968107, 0.006493466890000001, -0.1287087055, -0.30829208999999996, -0.42363004, -0.39271385000000003, -0.222427215, 0.0018381371060000001, 0.18059018500000001, 0.25393505, 0.218744975, 0.11837644850000001, 0.01524647235, -0.0410293615, -0.0327704629, 0.02685150782, 0.101630278, 0.14567219, 0.128641939, 0.0572341885, -0.025055725936500003, -0.064904742, -0.0388739649, 0.03041650756, 0.0992844365, 0.13790195, 0.140605065, 0.1166308865, 0.0816921845, 0.0527689265, 0.040578413, 0.049644321500000005, 0.086468449, 0.157027905, 0.24981615000000001, 0.32554638500000005, 0.33766705, 0.270761735, 0.15755441, 0.058740873, 0.017949633, 0.030036159000000003, 0.057120753, 0.0731590765, 0.081809832, 0.0943518175, 0.10462447, 0.084859892, 0.003933077277, -0.13655886150000002, -0.277776925, -0.32956294999999997, -0.23737055999999998, -0.03273534773, 0.180015743, 0.29311171, 0.26028933, 0.1126497045, -0.0685448692, -0.19953800000000002, -0.2382833, -0.20205842000000002, -0.145227445, -0.11360111, -0.1159633, -0.134662665, -0.152876885, -0.16698017499999998]]","[[0.256385865, 0.20838198, 0.15502940499999998, 0.12100978, 0.093987272, 0.045811292999999996, -0.0222647014, -0.060364128499999996, -0.002726566051, 0.1636944285, 0.35867075, 0.45970113500000004, 0.403713465, 0.232320535, 0.055239539465, -0.02595652835, 0.013834191835, 0.109662089, 0.15880232, 0.090916953, -0.08902945481499999, -0.296937805, -0.414218075, -0.37127879, -0.20645739500000002, -0.032058175794, 0.06862336499999999, 0.08797637500000001, 0.053729705499999995, -0.0039015968735, -0.0589620405, -0.0997519305, -0.12722994999999998, -0.14028633, -0.13410238, -0.11451109000000001, -0.102614035, -0.11625904000000001, -0.1444173, -0.14969654, -0.1147163745, -0.075894094, -0.08830337399999999, -0.161737625, -0.2522973, -0.309711515, -0.310825535, -0.24972498, -0.127834526, 0.020942655094, 0.1220671075, 0.11785313800000001, 0.025956433627, -0.075767849, -0.110086261, -0.045190739565, 0.09172883949999999, 0.22639385, 0.283676575, 0.250599915, 0.18497598, 0.15470959, 0.18526957500000002, 0.25581411, 0.31664952500000004, 0.310036015, 0.19936594, 0.011110452690000001, -0.1524910085, -0.18136602], [-0.22108920999999998, -0.26982539, -0.21753870500000003, -0.085610827, 0.030568012829, 0.06817679, 0.06017647, 0.075039317, 0.127119387, 0.16032172, 0.1086775015, -0.0341651757895, -0.20277106499999997, -0.30992827500000003, -0.309329625, -0.22203715, -0.11813326249999999, -0.0666234325, -0.08737465, -0.150441245, -0.21034593499999998, -0.23346683, -0.21551644, -0.18002081, -0.149672825, -0.126852085, -0.1044417275, -0.0806284895, -0.069339735, -0.099041337, -0.17921343, -0.26448702999999996, -0.27611341, -0.17939295000000002, -0.03666992409, 0.044414204, 0.023518160653, -0.0419240499, -0.0694121085, -0.02204793731, 0.0738659675, 0.15139531, 0.147876605, 0.0479209398045, -0.0911050245, -0.16281586999999997, -0.10005416800000001, 0.053810044130000005, 0.183259175, 0.20814060999999998, 0.14088472, 0.0531007585, 0.0028859561020000003, -0.003938415968, 0.017594516600000002, 0.070040264, 0.14940921, 0.2099164, 0.1940164, 0.10222297100000001, 0.010150239215500002, -0.0080645004665, 0.033383228, 0.047825818, -0.025313503100000002, -0.152482802, -0.235225395, -0.20624523, -0.08869436800000001, 0.04068051504], [-0.222236825, -0.04992658148, 0.082213129, 0.09399669899999999, -0.024576536510000004, -0.197699625, -0.31041820000000003, -0.28928755, -0.15739646699999998, -0.011536554595999999, 0.060119784, 0.0463088385, 0.01211895335, 0.028026203550000003, 0.09522906349999999, 0.14502942000000002, 0.1118525455, 0.005364707665, -0.091527563, -0.09666264399999999, -0.00121840125, 0.13011728250000001, 0.22079495999999998, 0.231496295, 0.170447965, 0.08604629700000001, 0.0425665405, 0.0734240615, 0.14863568000000002, 0.200498435, 0.188808385, 0.137456125, 0.10794021000000001, 0.14334026, 0.23403397, 0.32509839999999995, 0.35334646999999997, 0.28883118, 0.16143909350000002, 0.0498989745, 0.0268213625, 0.0987890765, 0.19403955499999997, 0.216751575, 0.1287888905, -0.01358608391, -0.1093543085, -0.10430712, -0.03387067389, 0.015306910449999999, -0.022871378165, -0.144253245, -0.2723892, -0.311418005, -0.2222229, -0.056998206685000004, 0.08239317, 0.1230139, 0.0617049701, -0.051664836675, -0.15721711, -0.22171974500000002, -0.248404985, -0.26008636, -0.27295198, -0.28066665, -0.26326055, -0.21568169999999998, -0.16274844000000002, -0.13996096]]","[[1.09254075, 0.94613572, 0.8606461799999999, 0.908215105, 0.988793785, 0.945238445, 0.784135445, 0.730311185, 0.99018531, 1.4552823000000001, 1.7737756500000001, 1.7210741999999999, 1.3719746499999999, 0.949720255, 0.633204425, 0.50544188, 0.55880259, 0.67876402, 0.6955430800000001, 0.52254124, 0.23272182749999998, -0.015502908571, -0.134312357, -0.191570535, -0.31249579, -0.5030203050000001, -0.64888851, -0.68318923, -0.653717685, -0.63073098, -0.6341007900000001, -0.655190845, -0.685548705, -0.71172404, -0.7244516350000001, -0.74724849, -0.81786038, -0.9190792999999999, -0.962574515, -0.87609003, -0.69317601, -0.541517135, -0.53832834, -0.689386135, -0.8836993099999999, -0.9676711400000001, -0.834669565, -0.50519344, -0.140872854425, 0.07672942425, 0.0884931295, -0.04196134459, -0.20964249, -0.32478738999999995, -0.33677697, -0.24788105500000002, -0.11536386200000001, -0.028916133999999996, -0.06922441, -0.25711639000000003, -0.505460035, -0.6394949249999999, -0.54206603, -0.2916006, -0.090027343, -0.072224707, -0.211614025, -0.357095245, -0.32779077, -0.03019272183], [0.04757268815, -0.055259242014999994, -0.173694685, -0.26758228, -0.299384105, -0.26275876, -0.176525155, -0.0643435604, 0.04806545026, 0.132397569, 0.161543675, 0.11173475, -0.0116215435, -0.159445946, -0.278138045, -0.332412725, -0.30237424, -0.200200165, -0.0755752385, 0.00957791652, 0.0200036995, -0.024733051807, -0.072376731, -0.090996153, -0.0884728615, -0.088916353, -0.10502222700000001, -0.13327697, -0.16363833, -0.192474865, -0.22376192, -0.259634425, -0.283871265, -0.257200405, -0.153521935, -0.0106422591815, 0.0864208, 0.088438541, 0.0308424471, -0.0103037303225, 0.0032846650440000002, 0.039684071, 0.03566162605, -0.040703758675, -0.162332486, -0.262792185, -0.28718558, -0.24602585999999999, -0.20492806000000002, -0.20617238000000002, -0.2171317, -0.18346873500000002, -0.11189491050000001, -0.053344868999999996, -0.028058773999999998, -0.01117612468375, 0.02174383185, 0.069635643, 0.111617939, 0.12330315, 0.1064865395, 0.10278364350000001, 0.146444875, 0.20709388, 0.20829267999999998, 0.10730768299999999, -0.048795893269999994, -0.16144852499999998, -0.165951795, -0.06329688911], [-0.04675227093, 0.14458139949999999, 0.31648563500000004, 0.32521200499999997, 0.0981721806, -0.28467870300000003, -0.62121633, -0.71628619, -0.5153231699999999, -0.132706218025, 0.245594588, 0.47792274, 0.511326785, 0.37211337, 0.1437046325, -0.067662031695, -0.17942808500000001, -0.15980063, -0.0352200327835, 0.1133390485, 0.18920653, 0.14689809950000002, 0.02730679889, -0.087251126, -0.14798313, -0.163269615, -0.161353935, -0.151797585, -0.13244794499999998, -0.108486981, -0.083516562, -0.04165307555, 0.043883548318, 0.18360022999999998, 0.356065045, 0.50550346, 0.559020655, 0.46642939499999997, 0.24689588, 0.0005868415300000002, -0.14945943350000002, -0.13965483150000002, -0.0034446141649999997, 0.1572332, 0.24538867499999997, 0.22703399999999999, 0.1315008505, 0.0151792946595, -0.07270051849999999, -0.11672667, -0.140817885, -0.17058907999999998, -0.186797, -0.131542387, 0.0293563538, 0.25304892500000004, 0.43152632500000004, 0.45602435999999996, 0.28099096, -0.043375300205, -0.38209789, -0.58082303, -0.5603381000000001, -0.373192045, -0.16270592650000001, -0.050274221, -0.0598371315, -0.140405977, -0.23109358, -0.295444895]]","[[0.61083048, 0.563854155, 0.509009065, 0.49626919, 0.5068902399999999, 0.48077302000000005, 0.414862995, 0.407620755, 0.5669961649999999, 0.8608740450000001, 1.1028306, 1.1169212, 0.8902211950000001, 0.56078599, 0.300975545, 0.21942559, 0.314373715, 0.47418143, 0.5432655900000001, 0.43024433500000003, 0.173178444, -0.094805719095, -0.25254112500000003, -0.28098360499999997, -0.251070825, -0.231276745, -0.23775242500000002, -0.267705825, -0.32475116, -0.39301432, -0.428233825, -0.40215249, -0.33364305, -0.26672515, -0.23992971000000002, -0.27954659, -0.385873935, -0.50852762, -0.56320883, -0.496354555, -0.336387675, -0.185622005, -0.15117213, -0.263849445, -0.456885855, -0.61480091, -0.6377047650000001, -0.48698168000000003, -0.21325317349999998, 0.0558268799225, 0.18720201499999997, 0.125095486, -0.0749367366985, -0.287025455, -0.39401889500000004, -0.34361627, -0.163778777, 0.04544237989, 0.149518425, 0.06306794919, -0.169450446, -0.38796111000000005, -0.442146665, -0.315774905, -0.11726914000000001, 0.029615649125, 0.069298043, 0.022680808875, -0.04790760299999999, -0.0725646595], [0.141806625, 0.0612191465, -0.03627396175, -0.0858681315, -0.054694689, 0.03182217312, 0.12478329649999999, 0.191244435, 0.21315968500000002, 0.18042806, 0.097909194, -0.014112032545, -0.12374978349999999, -0.19640765, -0.215989915, -0.19219027, -0.14756892, -0.10667207899999999, -0.0832787425, -0.07444047000000001, -0.0748580945, -0.0820378745, -0.0901552465, -0.09521199100000001, -0.09865689899999999, -0.10532282500000001, -0.11708304500000001, -0.12715811999999999, -0.13517986499999998, -0.158519635, -0.208927345, -0.26543378, -0.27796722500000004, -0.20492932, -0.06406832802000001, 0.067906902, 0.121079455, 0.0839384405, 0.0018898975545, -0.0537329715, -0.037507642849999995, 0.02933559637, 0.075370347, 0.03632193459, -0.0925648405, -0.24093597500000002, -0.31643761000000004, -0.28460205, -0.18341135, -0.072807118, 0.007483854935000001, 0.0430375, 0.02920421395, -0.031465842059, -0.103782663, -0.1215794345, -0.0481287728175, 0.0790440795, 0.17680133, 0.187996735, 0.131867646, 0.0785975465, 0.0687036835, 0.077573302, 0.055805161, -0.0145135997735, -0.10007266299999999, -0.150284195, -0.14165828, -0.0815341815], [0.033435832214999996, 0.278623055, 0.47113652500000003, 0.508911345, 0.337905125, 0.017189581215, -0.29053961, -0.419072605, -0.313272735, -0.06041788133, 0.187619958, 0.324831025, 0.33786854, 0.26789219, 0.1533166135, 0.019881743755, -0.09452942650000001, -0.1361156, -0.0766499475, 0.0481219909855, 0.16006472, 0.19881324, 0.15888606, 0.0733471935, -0.0210900373, -0.0933396575, -0.116669, -0.0855440965, -0.033179346500000005, -0.0082322047, -0.023724137500000003, -0.0405133995, -0.0056763792094999994, 0.102948268, 0.26054549, 0.39540045, 0.41130315, 0.25033858, -0.037296030023, -0.29644554, -0.37134960499999997, -0.227199195, 0.020270689695, 0.197917555, 0.208483795, 0.083118416125, -0.076708588425, -0.1884269, -0.223588475, -0.193196105, -0.12976773, -0.0706369565, -0.031284814, 0.0097920815937, 0.0851372275, 0.190436765, 0.26802925, 0.24485763, 0.0927569528945, -0.1369739195, -0.33418648500000003, -0.404371615, -0.337379555, -0.20727927499999999, -0.10676525249999999, -0.0752499115, -0.0879009735, -0.106921282, -0.126187705, -0.15776852]]","[[0.94712201, 0.8795952750000001, 0.827032055, 0.8429725299999999, 0.867012135, 0.7849750249999999, 0.59109993, 0.46395632, 0.6083828050000001, 0.990648245, 1.3289803, 1.37943065, 1.13421997, 0.749772225, 0.3912451, 0.17194387, 0.14602294000000002, 0.26898132, 0.39095763499999997, 0.357948905, 0.13423629923, -0.17745186799999998, -0.43355215, -0.56633625, -0.59812401, -0.56602566, -0.49254389000000004, -0.42765262, -0.44179339999999995, -0.54756121, -0.67370813, -0.736189365, -0.704565755, -0.60147167, -0.481809155, -0.422593165, -0.482123735, -0.63355944, -0.7612208850000001, -0.751211565, -0.5928484350000001, -0.395206945, -0.30305359, -0.383042485, -0.579682155, -0.7635696249999999, -0.81081481, -0.6650967950000001, -0.372802, -0.06895672025499999, 0.1014472785, 0.07535890545, -0.094913683515, -0.28857510000000003, -0.392869905, -0.3517421, -0.180870621, 0.035325304, 0.17457261, 0.14918680950000002, -0.018450503953499998, -0.196196545, -0.24451549, -0.1265334095, 0.08615785057, 0.27425182, 0.328926005, 0.2182658, 0.04453338176705, -0.005315126295], [0.1527346885, 0.23237359999999999, 0.237220905, 0.16462216000000002, 0.05028228199, -0.04966652875, -0.08984297, -0.0642324725, -0.008606193125, 0.035676706, 0.053055080500000004, 0.0444605795, 0.014504547046, -0.02847843455, -0.08099355250000001, -0.138101955, -0.18528409499999998, -0.20984922, -0.20372169499999998, -0.16196760000000002, -0.093451848, -0.0291165361, -0.00406981995, -0.02323023685, -0.0593375535, -0.09360037950000001, -0.12957713, -0.16176697, -0.16863173, -0.146410235, -0.123999915, -0.130288725, -0.15024183000000002, -0.1295024395, -0.037273302015, 0.088852753, 0.180190055, 0.20131587499999998, 0.16663494, 0.1137621305, 0.0738190455, 0.058056971, 0.0577805485, 0.050455607, 0.0139777399545, -0.050161965999999995, -0.1094422845, -0.12927687000000002, -0.1084862725, -0.076263396, -0.054656641, -0.0437242215, -0.0401995775, -0.0511851405, -0.0806397455, -0.114419761, -0.12494887500000001, -0.0933041955, -0.0352901965, 0.0073663425464999994, 0.0125875791, 0.0010810167905, 0.00948080224671, 0.05133395, 0.0992241765, 0.1084135925, 0.062186873499999996, -0.020042919205, -0.107231529, -0.16814268], [0.16329610500000002, 0.39125827, 0.63015244, 0.780963165, 0.726906765, 0.43496187, 0.020821267950000003, -0.30951104, -0.39925103, -0.23940048, 0.0484844307, 0.309322555, 0.437343385, 0.39582062, 0.2030224285, -0.06871254158000001, -0.298537795, -0.368817745, -0.24639876000000002, -0.01491838736, 0.190723145, 0.283474265, 0.261465985, 0.16481511999999998, 0.024540580305, -0.132983854, -0.259644855, -0.29953831000000003, -0.24127514000000003, -0.134146054, -0.037785876115, 0.030832938083500003, 0.098017535, 0.199304655, 0.34378816, 0.47989104, 0.50067524, 0.32411509000000005, -0.00955428646, -0.331900955, -0.462816995, -0.34339384500000003, -0.06589450263, 0.209293701, 0.36241373000000005, 0.358105965, 0.2251279, 0.02497327521, -0.1643541325, -0.26806526, -0.25222041, -0.1482072335, -0.030079327367, 0.046929316500000005, 0.08602731300000001, 0.12435755500000001, 0.17365834, 0.18476794000000002, 0.07796095706, -0.1715152935, -0.468279135, -0.644979015, -0.597421175, -0.371968805, -0.1203177, 0.028922682704999998, 0.0478484145, -0.01787404073, -0.114603235, -0.20564385999999998]]","[[0.979552125, 0.43443441499999996, 0.331605305, 0.77523714, 1.2692036, 1.3366094000000002, 0.9878110499999999, 0.624933625, 0.577505085, 0.71674554, 0.7018302, 0.46145976, 0.20847857, 0.115766305, 0.148410065, 0.1804846, 0.17205973, 0.18374903, 0.23682859, 0.273679185, 0.27703020500000003, 0.284841165, 0.236504505, -0.07458797806, -0.7285118850000001, -1.4051674, -1.66880165, -1.49201295, -1.2133927, -1.07281565, -1.023619675, -0.93779713, -0.81359086, -0.7424542049999999, -0.774725625, -0.894620365, -1.056592325, -1.17077995, -1.14362705, -0.9753302150000001, -0.7527088949999999, -0.58650446, -0.5821295599999999, -0.771008885, -0.9684592399999999, -0.752930805, 0.17036049769999997, 1.440465745, 2.19060605, 2.0391981, 1.46546595, 1.04908802, 0.90015356, 0.845250325, 0.75350481, 0.597055875, 0.422061415, 0.30224841, 0.16124856699999998, -0.25449620919, -0.990015255, -1.61834295, -1.7089354499999998, -1.3816747, -1.043035615, -0.8808633450000001, -0.83296145, -0.7919714449999999, -0.607591915, -0.050209241349999996], [-0.021719526, -0.037669495, -0.07404242, -0.111945484, -0.126236275, -0.10250801799999999, -0.0507408825, 0.003907641465, 0.0404120765, 0.0498193195, 0.034208557, 0.001085663305, -0.0441479515, -0.09642267650000001, -0.143362145, -0.16854453500000002, -0.1626214, -0.126485615, -0.0682265735, -0.00496694268, 0.035929236499999996, 0.029826703399999998, -0.021755025782500003, -0.081889664, -0.10207482799999999, -0.06413993450000001, 0.0017559873965, 0.0454901885, 0.039164815, -0.011467611945000001, -0.081323165, -0.137405205, -0.14595408, -0.08934055049999999, 0.01133883521, 0.1004783635, 0.12961113, 0.095354966, 0.0367074205, 0.0034881238399999998, 0.02293892535, 0.0819012805, 0.13394191, 0.13049412999999999, 0.05771205385, -0.0478899918145, -0.122599202, -0.126156965, -0.07411015, -0.015926198372, 0.01216776995, 0.0069792814335, -0.01700585125, -0.047461327500000004, -0.0722774215, -0.07127167, -0.03151214555, 0.028595861094999998, 0.065801766, 0.0500349835, -0.005358013385, -0.0534731885, -0.0559143045, -0.015956452671, 0.025054125150000002, 0.02328882515, -0.029342519989999996, -0.098641538, -0.135889135, -0.11040927099999999], [0.024915080238499997, 0.0790971565, 0.11218177000000001, 0.115284805, 0.0881045225, 0.03833623395, -0.0192425308715, -0.0666195835, -0.08709192699999999, -0.0756297775, -0.04681102400000001, -0.020371649500000002, -0.00480948153, -0.00157679967, -0.017809468749999998, -0.056430096, -0.09707966300000001, -0.10846947950000001, -0.077346444, -0.020515143715000003, 0.0315926542, 0.058709658, 0.05646354, 0.030990864, -0.0070217411935, -0.043739963, -0.063935586, -0.059537404499999995, -0.036408349, -0.006793247814, 0.02282730905, 0.052982732500000004, 0.0846546525, 0.111560937, 0.12163698, 0.1042924365, 0.056695983, -0.008505432114, -0.0648656235, -0.088779165, -0.075892146, -0.041985738, -0.005930327726, 0.023459389499999997, 0.0442919215, 0.0524093355, 0.040630016, 0.0064818905375, -0.0420243015, -0.08532434500000001, -0.1045967655, -0.09767650249999998, -0.0780352215, -0.058926757499999996, -0.0408509205, -0.0164788862, 0.013004777396, 0.0294063995, 0.011600175148, -0.04302382, -0.10948856, -0.150227625, -0.14525439499999998, -0.10268983300000001, -0.0461505335, 0.00033233433050000003, 0.022937905999999997, 0.0265429775, 0.031952757, 0.052255301000000004]]","[[1.06344455, 0.9745231950000001, 0.8463421449999999, 0.7360348299999999, 0.652749435, 0.563137365, 0.44264582500000005, 0.325729235, 0.292164205, 0.36976824999999997, 0.46933328500000004, 0.467444345, 0.33050026000000005, 0.125379807, -0.055336414355, -0.152157465, -0.15354581, -0.097591985, -0.059706140000000005, -0.10258063999999999, -0.22881515, -0.383804235, -0.5045616900000001, -0.56308795, -0.55356502, -0.46106541, -0.290761705, -0.11632620299999999, -0.0450415965, -0.11530678999999999, -0.25681454, -0.364190035, -0.380487415, -0.308372555, -0.189296425, -0.096197821, -0.0992382955, -0.19943414, -0.31637656, -0.35705169499999995, -0.29030258, -0.16620549, -0.071853117, -0.0629100785, -0.1289281685, -0.21120684, -0.24844141, -0.21814592000000002, -0.141105018, -0.046329643894999994, 0.043607843050000004, 0.09328009599999999, 0.0676251125, -0.031138536270000003, -0.15328463750000001, -0.225659575, -0.1920471, -0.05994172505, 0.0800077355, 0.1131522895, 0.010457989905, -0.1342731345, -0.20253906, -0.16466678999999998, -0.06421308245, 0.051847811762, 0.14638099499999999, 0.17626191, 0.118379134, 0.0203865479825], [-0.00675885614, 0.0117048349, -0.004281928632, -0.0403463225, -0.0801616815, -0.1020705225, -0.09122886250000001, -0.056073460500000005, -0.0140315149715, 0.02198826935, 0.042328573, 0.045074523500000005, 0.02499644245, -0.029974064532, -0.10960011, -0.176079875, -0.20306147500000002, -0.18901717999999998, -0.13856127000000001, -0.0598432365, 0.022942409828, 0.077121402, 0.0813644025, 0.03714712085, -0.026294792196499998, -0.063270281, -0.047524288500000005, -0.0040079491365, 0.01464210225, -0.0170346638105, -0.079875513, -0.131586625, -0.133351495, -0.0720141485, 0.028832412130999997, 0.11560689699999999, 0.14114928000000002, 0.104733459, 0.0483271215, 0.015641991, 0.0195405025, 0.044421314, 0.0719817225, 0.082664547, 0.0503830115, -0.022462193744999998, -0.084014724, -0.08676445049999999, -0.0439664135, -0.0078167984, -0.005040515749999999, -0.0170918715, -0.026508237, -0.044984526000000004, -0.07902005299999999, -0.1107040515, -0.120932735, -0.11077724, -0.0957842275, -0.092531473, -0.1051879965, -0.11830500000000001, -0.111999771, -0.075582949, -0.0200280862935, 0.023453061650000002, 0.021849985850000003, -0.03749611559, -0.123957813, -0.17349694], [0.0957672485, 0.26813138999999997, 0.42734813000000005, 0.527891965, 0.51406714, 0.36880547999999996, 0.14774627, -0.04602689078, -0.129776325, -0.091765282, 0.016772872945, 0.129054162, 0.2010114, 0.21389267, 0.15831129, 0.0413164474, -0.093442906, -0.17757478, -0.165876525, -0.0702737754, 0.05548735081, 0.15480395, 0.19682382, 0.178785835, 0.113805373, 0.0239102656325, -0.062426214, -0.1163041935, -0.124949885, -0.0993416305, -0.0609574645, -0.023432445, 0.014852682149, 0.070054121, 0.159476885, 0.26629027, 0.32352528999999997, 0.26108157, 0.08165367886449999, -0.122340312, -0.24091036, -0.22762882, -0.11313216150000001, 0.03499502207, 0.155199245, 0.21046948000000001, 0.190171925, 0.10472934, -0.018957619715, -0.1399580775, -0.21471658500000002, -0.22074884, -0.17399102500000002, -0.10938449049999999, -0.0426054417, 0.035023801484, 0.1215921215, 0.17621046499999998, 0.1400694495, -0.0043933773705, -0.194512525, -0.32563329500000004, -0.334535645, -0.24051655, -0.1148410735, -0.020215215003, 0.02291731575, 0.026458113499999998, 0.0084896810885, -0.01734690675]]","[[-0.298659995, -0.31672223, -0.14895741175, 0.152985873715, 0.388170015, 0.48774872, 0.617982355, 0.9187829399999999, 1.2871134, 1.5270096499999999, 1.58048115, 1.5083967999999999, 1.38864725, 1.2927723, 1.2814101500000001, 1.36029945, 1.4628822, 1.51049245, 1.46498255, 1.3543038, 1.28299255, 1.3415537499999999, 1.43875845, 1.2845169, 0.682450985, -0.1448585056, -0.74157342, -0.932049775, -0.91221155, -0.9088653800000001, -0.94827792, -0.9452551499999999, -0.8772845549999999, -0.808670915, -0.8070931, -0.9050545750000001, -1.095764615, -1.30240935, -1.4125193999999999, -1.37397855, -1.2165582000000001, -1.0310248450000001, -0.946895695, -1.055767625, -1.2794051, -1.31899245, -0.866932645, -0.004098647304999998, 0.73938917, 0.9471309050000001, 0.7291750399999999, 0.42161005, 0.20450939999999998, 0.0809833315, 0.003770869118, -0.052964819499999996, -0.0631040695, 0.0019068035499999999, 0.02176314024, -0.2703738985, -0.966677035, -1.73556645, -2.1389474, -2.1565555, -2.08745065, -2.0138818, -1.6410179, -0.76524485, 0.25200964389999997, 0.7965846999999999], [-0.12708196, -0.126550075, -0.11521442500000001, -0.100026429, -0.0873980295, -0.084059828, -0.0880267425, -0.0805606845, -0.04096585555, 0.0289324956985, 0.0978893885, 0.11959756499999999, 0.063614953, -0.05419786881, -0.174263195, -0.230604075, -0.19280368, -0.08519721799999999, 0.030397762204999998, 0.093624068, 0.0759657215, -0.0042035938905, -0.08699790099999999, -0.10830683949999999, -0.048169861269999996, 0.049630595565000005, 0.10927107100000001, 0.0857513155, -0.00160154283, -0.093314377, -0.136428975, -0.11419276549999999, -0.046343107, 0.0293544901435, 0.075086099, 0.0710853415, 0.032916413000000005, 0.001903196153, 0.0085520671186, 0.0479517625, 0.0888237235, 0.100191738, 0.070389275, 0.009026351995000001, -0.059979085999999994, -0.10560852300000001, -0.10633992299999999, -0.07354393199999999, -0.047550762999999996, -0.0581174845, -0.09327120900000001, -0.11235614, -0.08893490500000001, -0.0376764355, 0.005418706341500001, 0.020960166500000002, 0.01490488365, 0.001583976414, -0.00956508655, -0.0144947435, -0.007699841793, 0.01717007635, 0.053051163, 0.0738371835, 0.052330854999999996, -0.012893471751, -0.08754290199999999, -0.12614952000000001, -0.10843942150000001, -0.04700568055], [-0.173497335, -0.14572780999999999, -0.11994747500000001, -0.09559828599999999, -0.0722955365, -0.0543400995, -0.0508564645, -0.06834771349999999, -0.09621264, -0.1107016, -0.10343875799999999, -0.088914605, -0.080484078, -0.07157709500000001, -0.0513493, -0.0210554323, 0.011823191875000002, 0.0383348275, 0.056345847500000004, 0.071014361, 0.0838893985, 0.088876992, 0.078890443, 0.0586864345, 0.0391443595, 0.025116516, 0.020959959, 0.032794205, 0.0572434795, 0.08251113950000001, 0.10452776849999999, 0.12868788, 0.15088869000000002, 0.146185585, 0.0928621935, 0.00750994113285, -0.062362789, -0.08088900199999999, -0.056308879000000006, -0.029775385499999998, -0.030286031, -0.052606643999999994, -0.0729223545, -0.07220658099999999, -0.047146909499999994, -0.009981701356, 0.0190665655, 0.0223123805, -0.0093338401375, -0.062714832, -0.105797442, -0.117115105, -0.1010462875, -0.0755752865, -0.0530387195, -0.034707312500000004, -0.021897666500000003, -0.022214708, -0.036374722, -0.052933384, -0.059444716499999994, -0.054114484000000004, -0.049071176, -0.0491878865, -0.0400928475, -0.014762927969999999, 0.0081199476515, 0.0124223125, 0.0122001835, 0.02591882]]","[[0.81506779, 0.89097381, 0.87855331, 0.7658328050000001, 0.6070190050000001, 0.47172566000000005, 0.40264843499999997, 0.418221615, 0.5320160700000001, 0.750541245, 1.01007485, 1.1595867499999999, 1.081566705, 0.8093321950000001, 0.504974705, 0.32578883, 0.30082359000000003, 0.3265422, 0.266895005, 0.0530359332155, -0.27689049, -0.59157912, -0.734774275, -0.6322427300000001, -0.36232759000000003, -0.11091635, -0.0261014085, -0.11710223600000001, -0.287221005, -0.42238611499999995, -0.45945488500000004, -0.41742883999999997, -0.36705085, -0.362000065, -0.40584610499999996, -0.47451249500000003, -0.543740065, -0.593412845, -0.59999067, -0.540018785, -0.429038295, -0.34796284, -0.381677925, -0.52549844, -0.6874160500000001, -0.7879093149999999, -0.82573414, -0.830416455, -0.792423345, -0.7018596050000001, -0.618550955, -0.61571365, -0.680661905, -0.7280009, -0.680961595, -0.5137111999999999, -0.25866807999999997, -0.0100055278255, 0.1248635235, 0.12799742, 0.0980546895, 0.14770003, 0.30361678000000003, 0.5136597900000001, 0.7068476149999999, 0.82824, 0.8453165, 0.75746845, 0.61096562, 0.48956578], [-0.117835156, -0.223353405, -0.281720635, -0.23813098, -0.1166939555, 0.008314956225, 0.08952038849999999, 0.135207405, 0.16955804, 0.189934595, 0.169758745, 0.089774126, -0.03494325095, -0.155051195, -0.21972757, -0.207972495, -0.1352634895, -0.0467976685, 0.0098418876085, 0.0160909396, -0.020559906981, -0.0784343625, -0.12542595499999998, -0.13835494, -0.120391865, -0.0925221165, -0.0707196915, -0.052531559000000005, -0.039623947, -0.061405132499999994, -0.1386069495, -0.23369340000000002, -0.26929870499999997, -0.19880067499999998, -0.058613621192999996, 0.056046409, 0.082138941, 0.039501984999999996, -0.0083449421655, -0.0080390000855, 0.052966328, 0.127189844, 0.132798078, 0.022588988835, -0.1663254695, -0.32373392500000003, -0.35076034, -0.251839695, -0.117904051, -0.0230995540655, 0.02138865025, 0.0275135585, -0.00232268314, -0.060276035, -0.10372168500000001, -0.067350046, 0.06501420208, 0.218772825, 0.288791525, 0.23455509, 0.11378888449999999, 0.0248227022, 0.00762104105, 0.0147934702, -0.017439064261, -0.09514367200000001, -0.16384720000000003, -0.169792575, -0.1126521055, -0.0273469226325], [-0.12675512449999998, 0.069151915225, 0.20680767500000002, 0.20306938500000002, 0.06084008405499999, -0.13271404950000001, -0.259354945, -0.2406222, -0.09429102215, 0.07458245004, 0.155110445, 0.115859134, 0.021822295999999998, -0.0324284075, -0.00858244992, 0.052866608, 0.083533092, 0.054594654, -0.0055357948705, -0.049926792000000005, -0.055854365, -0.0272240202, 0.024370814209999998, 0.0792559315, 0.109362815, 0.1034910715, 0.083336078, 0.074477714, 0.068661099, 0.0365438914, -0.023987625114000002, -0.07070045999999999, -0.05632816, 0.022396553460000003, 0.12033581, 0.17846198000000002, 0.162303335, 0.085107112, 0.004428408946, -0.0161517224545, 0.04298876215, 0.137784417, 0.18641680000000002, 0.1294695915, -0.01107444863, -0.1312890305, -0.13048961950000001, -0.01191756343, 0.1138820525, 0.12985487750000002, 0.0102549821425, -0.163041878, -0.26069092, -0.201069535, -0.015165189515, 0.1725393985, 0.2361484, 0.142229251, -0.03062610353, -0.157278255, -0.16443577999999998, -0.0864009025, -0.0279212085, -0.0688672325, -0.19792417499999998, -0.32298147499999996, -0.34561755, -0.245931575, -0.1022708935, -0.024324702]]","[[1.0546298, 1.0947346, 1.1076264500000002, 1.0980334999999999, 1.036977195, 0.8826877949999999, 0.659157435, 0.500964635, 0.569779015, 0.88315798, 1.2474181, 1.41387, 1.2892221499999998, 0.975326135, 0.65155028, 0.448072435, 0.39025151, 0.40750977, 0.386105305, 0.24813690000000002, 0.004694578805, -0.25465042, -0.433758975, -0.504583235, -0.50296394, -0.461873615, -0.39288625000000005, -0.33183123000000003, -0.33968953, -0.43406055000000004, -0.55934755, -0.6428328249999999, -0.6500849, -0.5864323300000001, -0.48619676, -0.412315675, -0.42545381499999996, -0.52675098, -0.638738775, -0.659219845, -0.5537575499999999, -0.39926133999999996, -0.31957385, -0.374432775, -0.5224175050000001, -0.67723805, -0.76699654, -0.74556872, -0.605246195, -0.413253485, -0.285947395, -0.288345145, -0.38317841, -0.48332274499999994, -0.516655105, -0.443005425, -0.26395838, -0.046953942895, 0.09585482349999999, 0.09687148300000001, 0.00189473067, -0.0668929315, -0.02189961243, 0.12105518500000001, 0.28297826, 0.39155797, 0.40793304999999996, 0.3324201, 0.21652092, 0.1573297], [0.058065818, 0.11618550799999999, 0.10060050699999999, 0.01624722357, -0.094112052, -0.16646587499999999, -0.15432401, -0.0573934957255, 0.0801544475, 0.19898895, 0.25779634, 0.23905732000000002, 0.1414241285, -0.011415057449499999, -0.1661109905, -0.26261543, -0.268897275, -0.19556646, -0.080880349, 0.027079050113, 0.08065812, 0.0530905105, -0.042418462405, -0.15552232500000002, -0.22276279, -0.20961770999999998, -0.1369059105, -0.057832378000000004, -0.021015462500000002, -0.051226446499999995, -0.1381414175, -0.235240155, -0.2779184, -0.223547555, -0.09117444250000001, 0.051257227317, 0.15033860000000002, 0.1953647, 0.196875965, 0.170142125, 0.13081668000000002, 0.08831914599999999, 0.040224945500000005, -0.02525405089825, -0.10596595349999999, -0.16365376999999998, -0.158038145, -0.10570724699999999, -0.066907725, -0.075871581, -0.112873184, -0.137118865, -0.130725315, -0.110951525, -0.09633135100000001, -0.07546929050000001, -0.02948933641, 0.028793819835, 0.059981273999999994, 0.040563906999999996, -0.00670652358185, -0.0302598905, -0.0005291735730000001, 0.0629229915, 0.10806821700000001, 0.0942160735, 0.024740821636799998, -0.0651037465, -0.13799108499999999, -0.163786], [-0.12354314999999999, 0.020963159255, 0.16762588399999998, 0.25144521999999997, 0.22231916, 0.079419933317, -0.11212687900000001, -0.24598361000000002, -0.23988988500000002, -0.0949575808965, 0.1002126029, 0.22430536499999998, 0.20329034499999998, 0.061389757895, -0.1016793735, -0.18208424, -0.135144275, 0.0014513444249999998, 0.13290047400000002, 0.171694505, 0.10606779350000001, 0.0142756106715, 0.0036443545514999996, 0.11546821700000001, 0.27989453999999997, 0.37781260000000005, 0.346924815, 0.22167591, 0.0799736415, -0.021805570064999998, -0.059603263000000004, -0.028207085715, 0.05565129405, 0.15100606, 0.217411435, 0.232751155, 0.18895748999999998, 0.09645289950000001, -0.0060518497165, -0.062311993, -0.0342523590795, 0.06846274225, 0.188309885, 0.255057845, 0.24130521500000002, 0.17785598, 0.113082511, 0.06604959049999999, 0.020678802687, -0.04004359645, -0.1096415395, -0.16638925000000002, -0.19443966499999998, -0.18887491, -0.15012273499999998, -0.0845052675, -0.0086552272715, 0.044878016, 0.034283945015000004, -0.063058225615, -0.21463862, -0.33937812, -0.36623552, -0.28844106, -0.16562105, -0.070608159, -0.0349382195, -0.043321639, -0.0720389895, -0.1127792315]]","[[0.875201605, 0.867940805, 0.8891586549999999, 0.88295842, 0.784646555, 0.60174466, 0.42606934, 0.36240139, 0.45171269000000003, 0.6476955150000001, 0.8300168499999999, 0.86007614, 0.687085605, 0.397990885, 0.15023724, 0.0511081045, 0.0789519115, 0.105785517, 0.004743484955, -0.249593525, -0.5642784000000001, -0.79234503, -0.8317665200000001, -0.6958495550000001, -0.49515867999999996, -0.34130821, -0.264854075, -0.23320053500000001, -0.21910412999999998, -0.218348345, -0.23543817, -0.28102967, -0.355266885, -0.42381791, -0.438172445, -0.39057743, -0.329253535, -0.30953887, -0.33395341, -0.348114065, -0.312640045, -0.265840105, -0.27935132500000004, -0.36039017, -0.44250383499999996, -0.47601971, -0.48696488000000004, -0.52449231, -0.57940433, -0.60167899, -0.578392125, -0.53713416, -0.49733397, -0.459415795, -0.41428420000000005, -0.34054285, -0.220675505, -0.0802112145, 0.01844683476, 0.0491147365, 0.061903755, 0.1261330695, 0.253816155, 0.395690685, 0.497702505, 0.53828817, 0.51639778, 0.441274565, 0.352221505, 0.31517792499999997], [-0.190185005, -0.19096906, -0.140506937, -0.04700958995, 0.025159749085000002, 0.039994063999999996, 0.033143810999999995, 0.0618822635, 0.13849643350000002, 0.21247807500000002, 0.21321225500000002, 0.113032971, -0.04946577156, -0.19684954000000002, -0.26066465, -0.2225879, -0.1252783895, -0.0362505938, 0.0026264385, -0.0133219786415, -0.068571928, -0.138164915, -0.19519186000000002, -0.21666715, -0.18711555000000002, -0.1125431605, -0.028997214527500002, 0.021579754599999997, 0.014357853784500002, -0.060344442000000005, -0.18758049, -0.30706542, -0.334758475, -0.236241695, -0.079002685, 0.02198029579, 0.0214314580501, -0.0255587803, -0.039173104, 0.01172109388, 0.0930305745, 0.13644736999999998, 0.090781621, -0.037901741875, -0.172405795, -0.20858355, -0.1151930765, 0.01931600127, 0.07119633, 0.00536496045, -0.10197175850000001, -0.15057019, -0.1104206935, -0.032052253765000004, 0.0294299583, 0.0729341, 0.1180845875, 0.148566965, 0.1247124735, 0.046472452100000006, -0.0256791685365, -0.03209431, 0.015073325975000001, 0.04246215699999999, -0.00958431963, -0.12502449999999998, -0.21966359000000002, -0.218225895, -0.11921231049999999, 0.023918405969999997], [-0.244149855, -0.0870440344, 0.067727124285, 0.14069305, 0.08751175, -0.059899979615500004, -0.201669415, -0.23115399, -0.11075082050000001, 0.09992824172, 0.283753315, 0.337373075, 0.23213051, 0.03421549358, -0.1321054245, -0.16196856499999998, -0.043228278255, 0.1295541905, 0.21976047, 0.1497831465, -0.034831915814999996, -0.19134182500000002, -0.18661043, -0.009997745110000001, 0.21160121499999998, 0.32515346, 0.27969847000000003, 0.143797568, 0.0195528330075, -0.0320231485, 0.00222856491, 0.103627164, 0.223451115, 0.29557912999999997, 0.27698937, 0.17671957, 0.048215059005, -0.04015596875, -0.043033370499999994, 0.03409171744, 0.141111719, 0.218014325, 0.22429996500000002, 0.1527735635, 0.03996121195, -0.0453219005, -0.053650206000000006, -0.00447472286, 0.030629208, -0.0023709622599999997, -0.096445429, -0.19533824, -0.234331405, -0.183400115, -0.06992234609999999, 0.0386012461805, 0.083247189, 0.049235823, -0.03796334845, -0.134121918, -0.193772255, -0.193449295, -0.14966587, -0.105745266, -0.09889785749999999, -0.13246136, -0.17497389, -0.18971229, -0.167764335, -0.13215607000000001]]","[[0.930316095, 0.861290745, 0.846299675, 0.8935031600000001, 0.902277085, 0.75361897, 0.47246325, 0.280606135, 0.415688185, 0.853823895, 1.28930035, 1.42116825, 1.19301462, 0.76482812, 0.35043542, 0.1125240965, 0.11486621550000001, 0.28196392, 0.43114392, 0.40500064, 0.18661874699999997, -0.111800819735, -0.36548538999999997, -0.533723715, -0.631095425, -0.64329465, -0.551059445, -0.418699025, -0.36871719, -0.45599270500000005, -0.6135703800000001, -0.72949541, -0.737856235, -0.63876747, -0.48449664499999995, -0.36651297, -0.36728965, -0.48615213500000004, -0.626843355, -0.6764428800000001, -0.598437555, -0.45673642999999997, -0.35754801999999997, -0.365509405, -0.46833147500000005, -0.60044562, -0.680349875, -0.6433741000000001, -0.478746795, -0.243295185, -0.0280420399, 0.090417421, 0.0839573225, -0.020230908509, -0.15191997799999998, -0.224879675, -0.182336, -0.04252679552, 0.099479711, 0.137988775, 0.0508433522, -0.0731671775, -0.122518745, -0.06799042949999999, 0.042398594395, 0.1401147395, 0.16176914, 0.0824685165, -0.02818050601, -0.03003466606], [0.0671281355, 0.119365495, 0.1074678815, 0.051098822, -0.000501598258, -0.0118960482, 0.0177242335695, 0.0695263145, 0.1236939105, 0.16846083, 0.196546275, 0.19221418499999998, 0.1375903915, 0.036033258044999995, -0.08314861999999999, -0.179470865, -0.22134315000000002, -0.20328804, -0.142381485, -0.0655458145, -0.0051481147765, 0.014640188949999999, -0.0049012175405, -0.039586794, -0.061588059, -0.06435279249999999, -0.066265668, -0.084079048, -0.11695086249999999, -0.15400123000000002, -0.183661425, -0.19701679, -0.18254826999999998, -0.1264223045, -0.033225823175, 0.0662924685, 0.13721731, 0.16020552, 0.13773967, 0.0924255195, 0.0507634295, 0.0246952665, 0.006861424620999999, -0.022989086099999997, -0.0777682375, -0.13984728999999999, -0.17654529, -0.18030697499999998, -0.172359335, -0.170283535, -0.170170085, -0.15828258, -0.13267888, -0.10789983149999999, -0.0920311865, -0.0730207425, -0.038444821500000004, 0.0046307566855, 0.032798533, 0.026969628000000002, -0.0015275904555, -0.0131276719, 0.021299519488, 0.0908180005, 0.149118465, 0.147104035, 0.0732065325, -0.036878459165, -0.125264709, -0.14438718], [0.083611827495, 0.298703865, 0.511617195, 0.639238685, 0.594826075, 0.36288234, 0.038413163085, -0.219613255, -0.291803625, -0.171102941, 0.050762149427, 0.255192555, 0.3620442, 0.3486554, 0.233033215, 0.059305744213, -0.10486937599999999, -0.18430099, -0.140891829, -0.009906122085, 0.12396188000000001, 0.19348870999999998, 0.18974237, 0.141448985, 0.0723364685, -0.0079102050065, -0.08345090799999999, -0.12647186, -0.121254965, -0.08130977, -0.0319068534, 0.015803660644, 0.06828545850000001, 0.1380996605, 0.23017543499999998, 0.32067175, 0.348332115, 0.251899255, 0.036748982560000004, -0.19988171300000002, -0.32858420000000005, -0.28314937, -0.103870870185, 0.10166258685000001, 0.23515926499999998, 0.2573525, 0.188358725, 0.0760020045, -0.0359341739805, -0.120403019, -0.166846445, -0.17494986999999998, -0.14790039500000002, -0.091480294, -0.01593148181315, 0.065748134, 0.13579755000000002, 0.15896355, 0.0841560533, -0.109692027855, -0.358611785, -0.531044795, -0.52552601, -0.35536986499999995, -0.133798961, 0.0242324669393, 0.078682157, 0.0576731045, 0.0057544002945, -0.0476912615]]","[[0.70475493, 0.59591072, 0.532335565, 0.555572635, 0.568596735, 0.44308721, 0.20293938749999998, 0.066415195, 0.246282437, 0.6800471849999999, 1.05341685, 1.11332405, 0.8696299399999999, 0.5124881649999999, 0.23411995000000002, 0.138444115, 0.22365023999999997, 0.38136307, 0.45063947, 0.335838595, 0.08369178438000001, -0.1643829335, -0.300309105, -0.33257211499999995, -0.33643817499999995, -0.340787525, -0.31927232, -0.280111235, -0.281059775, -0.342663005, -0.41378298999999996, -0.437994705, -0.41074187, -0.36531883, -0.337684975, -0.35513724500000005, -0.42573254, -0.51561326, -0.553819755, -0.48484274499999996, -0.328994465, -0.18684880499999998, -0.166612665, -0.292014405, -0.48236646499999997, -0.615982595, -0.60759489, -0.4522167, -0.225251895, -0.030783820689999998, 0.062564477, 0.04476470625, -0.045677299475, -0.14720376500000001, -0.1997661, -0.16469258, -0.04828817635, 0.082745851, 0.12664517050000001, 0.022567381153500002, -0.174764557, -0.31257595, -0.27296028499999997, -0.086134865785, 0.117640231, 0.21883061999999998, 0.1547929115, -0.056536121560000006, -0.27698753, -0.29827033000000003], [-0.0695903385, -0.045795055, -0.01982508395, 0.0070029901465, 0.0245366365, 0.032393429, 0.0446941705, 0.0749225, 0.12049737099999999, 0.16371718000000002, 0.18514628, 0.169683915, 0.1106499045, 0.0220522137895, -0.062423203499999996, -0.1123667105, -0.12291733, -0.1099197885, -0.0863888935, -0.059103904, -0.039739594999999996, -0.0390579125, -0.0572845155, -0.08166783600000001, -0.08773677899999999, -0.0626422115, -0.0273163175, -0.0166713825, -0.0499378775, -0.1233127735, -0.212335765, -0.27739737999999997, -0.27637468000000004, -0.193567775, -0.06821467789999999, 0.0309567959, 0.06988807999999999, 0.0661709445, 0.056225164, 0.063981168, 0.08524392450000001, 0.09481849349999999, 0.0680376145, -0.00348824068515, -0.0940984695, -0.14560905999999998, -0.1220602935, -0.059592925, -0.032847786999999996, -0.0759753485, -0.15318799, -0.20143611, -0.193646485, -0.154475425, -0.111355146, -0.0588339945, 0.0123149154, 0.0788096775, 0.098792822, 0.0585971115, -0.002400303822, -0.025181198999999998, 0.012618615785, 0.08175972, 0.129059075, 0.120803697, 0.069079077, 0.0117584384395, -0.020258045, -0.0089442870525], [0.078231212245, 0.25831639, 0.40863700000000003, 0.43991826, 0.296827265, 0.02196210726, -0.25185314999999997, -0.38348307, -0.31054062, -0.08223501090999999, 0.17523465500000002, 0.334981935, 0.33687014, 0.20507273999999998, 0.01737300361, -0.1364959725, -0.187978425, -0.119728324, 0.0201829362895, 0.1470478385, 0.20250773, 0.19211701, 0.16361711, 0.15386199, 0.15774138499999998, 0.14889418499999998, 0.11954221000000001, 0.0875151935, 0.06715536949999999, 0.05617061600000001, 0.057210239999999996, 0.087909608, 0.157475535, 0.24571279499999998, 0.311633075, 0.312543175, 0.223429775, 0.059555568765000004, -0.11827767099999999, -0.22696330499999998, -0.20460087500000002, -0.05446562476, 0.14354662599999998, 0.279144855, 0.28903094, 0.19065123499999997, 0.04745854201415, -0.08403277299999999, -0.172538545, -0.20492575500000001, -0.18836328000000002, -0.14914058, -0.11277589900000001, -0.0827134865, -0.044078264000000006, 0.010197144489500001, 0.0589279195, 0.0561517675, -0.036410320752, -0.20647927500000002, -0.376208225, -0.44833108000000005, -0.37909555500000003, -0.20853161499999998, -0.02903581998, 0.08156122249999999, 0.1048847545, 0.0699807065, 0.0112272866947, -0.048892401]]","[[1.3175724500000001, 1.1235887, 1.0309808, 1.0951661, 1.168139, 1.050624985, 0.7395370800000001, 0.501210005, 0.63829425, 1.113934075, 1.5374063, 1.5773992000000001, 1.25574195, 0.843451925, 0.586907735, 0.5555553249999999, 0.664146825, 0.75602603, 0.69201133, 0.45192446500000005, 0.155283547, -0.05329098735, -0.140435115, -0.202469495, -0.33344526, -0.49873058, -0.598658015, -0.602581665, -0.54827028, -0.474838465, -0.42246887, -0.447547455, -0.56962464, -0.725151975, -0.8141287749999999, -0.801068195, -0.734990445, -0.67134789, -0.630235375, -0.6073762, -0.58520522, -0.5580194749999999, -0.54565986, -0.565605435, -0.607739625, -0.63490196, -0.6012391850000001, -0.49256707999999993, -0.344886535, -0.20871189, -0.112634521, -0.059590556499999996, -0.036831662, -0.036263271, -0.0514943055, -0.053567878, -0.0075834878905, 0.067666485, 0.088541607, -0.011085801639, -0.183705579, -0.282032465, -0.20215664, 0.006647892565, 0.204330445, 0.26779243, 0.1350601969, -0.16292105356, -0.4428147, -0.42715696999999997], [-0.29822758, -0.30267904, -0.30470665, -0.27552503500000003, -0.21457019, -0.15435944499999998, -0.11612951499999999, -0.08486004400000001, -0.03550088915, 0.0334493763435, 0.093397776, 0.1005884365, 0.030872416635, -0.085666587, -0.18030261500000003, -0.19969198999999999, -0.14356452, -0.060724643499999995, -0.004288204439, 0.0026142432630000003, -0.033865335999999996, -0.0819150755, -0.0976325015, -0.058918053, 0.014555748123000001, 0.072944798, 0.076176378, 0.025992976137000003, -0.04698724235, -0.11417216699999999, -0.158940815, -0.172977205, -0.150424045, -0.0938226115, -0.03035386365, 0.0037482917875, 0.0056210592, 0.00899965295, 0.045107667, 0.115116629, 0.18572601, 0.20442074000000002, 0.135624481, -0.00561761705, -0.1494799935, -0.20974328, -0.16619572500000002, -0.103263168, -0.118312969, -0.208116245, -0.28579045000000003, -0.28184745499999997, -0.20164953, -0.102803483, -0.026610897908000003, 0.03587661225, 0.103704966, 0.163497835, 0.183283315, 0.15233657, 0.1007460285, 0.0748686265, 0.08871238849999999, 0.10919657, 0.089423584, 0.0156185524345, -0.0733075285, -0.12362719, -0.11394645649999999, -0.054783683], [-0.01791154071, 0.2217003515, 0.43992437500000003, 0.5146390000000001, 0.36466867000000003, 0.03811660933, -0.288297405, -0.41737593500000003, -0.26754657000000004, 0.072830752035, 0.417138055, 0.6086868400000001, 0.60179521, 0.44989692, 0.23853079000000002, 0.035447036995, -0.108809813, -0.1471624, -0.06619245852, 0.0733205044, 0.166113075, 0.147369885, 0.03802306526, -0.0915526165, -0.186552105, -0.23365904499999998, -0.24227487, -0.223298325, -0.186765875, -0.143526445, -0.10103366899999999, -0.056922958, 0.001391214995, 0.08879786149999999, 0.20452036499999998, 0.309094375, 0.330117965, 0.21474771, -0.0094170602925, -0.230798305, -0.32502551500000004, -0.24181824500000001, -0.038048442645, 0.1646042025, 0.2651603, 0.240023145, 0.131885696, 0.003215827755, -0.094371238, -0.130436815, -0.1045135515, -0.042430908049999994, 0.0302367540295, 0.1116112675, 0.21288466, 0.321632855, 0.379104095, 0.302447895, 0.052186181214999995, -0.300195345, -0.587347775, -0.6590940500000001, -0.49282250499999997, -0.2031283185, 0.049307650125000005, 0.16390777, 0.1374933335, 0.028963180036, -0.0927499895, -0.17876185500000003]]","[[-0.46336664, -0.30844743, -0.28607084, -0.512484185, -0.84284973, -0.973626235, -0.775646775, -0.50448933, -0.496787445, -0.6768288750000001, -0.72746728, -0.60481725, -0.50760263, -0.500112625, -0.43885561500000003, -0.26562779, -0.139903605, -0.190638, -0.35670968999999997, -0.523717485, -0.6422015550000001, -0.6699815100000001, -0.493307085, -0.0191813875, 0.603401765, 1.0083889449999999, 0.992000675, 0.712685535, 0.459317605, 0.38308439, 0.464169275, 0.600489395, 0.6778550950000001, 0.6253949449999999, 0.477629845, 0.34503119499999996, 0.299445885, 0.3223854, 0.35140862, 0.34551074, 0.304695885, 0.24328739, 0.18526858000000002, 0.17442095500000002, 0.23475356000000003, 0.29890759, 0.21974266, -0.077070084575, -0.48972216, -0.852788195, -1.06811623, -1.1047858499999998, -0.97793506, -0.7604117599999999, -0.5702819499999999, -0.49932452, -0.55292836, -0.6666264599999999, -0.7571889350000001, -0.7404528349999999, -0.576403235, -0.337537195, -0.175818645, -0.212416825, -0.43766721, -0.637635385, -0.46097994999999997, 0.23191201846999998, 1.013291945, 1.16613532], [-0.14769388, -0.11355077350000001, -0.0765365025, -0.0569652135, -0.061008471, -0.0862809195, -0.11528076000000001, -0.11307336850000001, -0.053652100249999994, 0.049971894176999994, 0.14448958, 0.16565017, 0.084908091, -0.06008787372, -0.185633355, -0.218583715, -0.14540395750000001, -0.022477952655, 0.066222896, 0.070513228, 0.000725369945, -0.08343243299999999, -0.109834669, -0.0483953710668, 0.05937337325, 0.13138596, 0.112757404, 0.018626497159999998, -0.086292766, -0.14258009, -0.13210927, -0.078312054, -0.0213218930035, 0.010956564634999999, 0.0121437243, -0.009192313094, -0.034607106500000005, -0.04124747100000001, -0.014881932330500001, 0.03978529705, 0.09788125900000001, 0.12245640999999999, 0.08612613749999999, -0.0045459965354999994, -0.10762155699999999, -0.17004205, -0.16494858999999998, -0.116310202, -0.079405472, -0.08867517100000001, -0.129216695, -0.15762935, -0.143669965, -0.0942343165, -0.0401931845, -0.0046355948125, 0.01033080245, 0.014694259000000001, 0.017800108999999998, 0.023134877999999998, 0.034255832, 0.055934025500000005, 0.0797451015, 0.0802655195, 0.037911041050000004, -0.035246498145, -0.0949289385, -0.098216012, -0.0402968015, 0.04573056115], [-0.0339292205, -0.006693511914, 0.01835766565, 0.036611968, 0.041683662999999996, 0.033611747, 0.020313211999999997, 0.0098286409, 0.00747484075, 0.0152539354, 0.026586553, 0.029496793, 0.019912818000000002, 0.0066457515, -0.0024698992010000003, -0.0085797644, -0.011253055000000001, -0.0048725394615, 0.01361229255, 0.038407594, 0.0585774105, 0.0649514235, 0.053216982499999996, 0.028073595500000003, 0.0005148082685, -0.020190892499999998, -0.029792575, -0.028978726, -0.021278023, -0.007698044683500001, 0.0155254259, 0.049801080000000005, 0.085600801, 0.1037547575, 0.088206298, 0.042529605000000005, -0.01058051181, -0.0465222655, -0.0560072965, -0.047699458, -0.034136187, -0.0200522645, -0.0048517733805, 0.00880059, 0.013425241999999999, 0.003495753941, -0.017945249649999998, -0.040656232, -0.0556280835, -0.05781135800000001, -0.0477777825, -0.0338036735, -0.025168845000000002, -0.023152724500000003, -0.020781474499999997, -0.012230087249999999, -0.0035242675499999997, -0.008889025, -0.030824619, -0.0533355275, -0.059244518499999996, -0.0488365665, -0.0388014385, -0.0376321305, -0.033053527, -0.01438827685, 0.007391257387, 0.015154429, 0.0102888647, 0.0079132295]]","[[1.18588855, 1.06406786, 0.94267961, 0.870221965, 0.81344122, 0.7003643350000001, 0.5241029850000001, 0.38422754, 0.40491155999999995, 0.58504373, 0.761851325, 0.76069561, 0.557617225, 0.29139392999999997, 0.13956699, 0.17410819, 0.31856613500000003, 0.42179502, 0.36737925, 0.1583997705, -0.07833433667100001, -0.18904411499999998, -0.1378120605, -0.0459487445, -0.065029627, -0.22866088999999998, -0.42542481000000004, -0.51079969, -0.44147025999999995, -0.29286589500000004, -0.17690352999999998, -0.1688565, -0.277538555, -0.435230145, -0.53137598, -0.49702164, -0.36638604999999996, -0.24736254500000002, -0.22286254, -0.28221558, -0.343222285, -0.34425163, -0.302444795, -0.277380465, -0.29586457499999996, -0.32753434499999995, -0.33564105, -0.31432222499999996, -0.27054599, -0.20423891000000002, -0.1279064145, -0.0783494065, -0.084090268, -0.14378545, -0.220372805, -0.25579396, -0.211981845, -0.1061043265, -0.021569802, -0.0556550055, -0.205873265, -0.334758895, -0.305838385, -0.1414821195, 0.016519327844, 0.07303354299999999, 0.0423184115, -0.027717504769999998, -0.105121524, -0.131371735], [-0.22659118, -0.21903067, -0.21321717499999998, -0.20224545, -0.17908447, -0.152408925, -0.13427222, -0.12129286499999999, -0.09992978300000001, -0.067558117, -0.042592143, -0.053933704, -0.1138938425, -0.196232105, -0.24958033000000002, -0.23782639, -0.16844346500000001, -0.0870345565, -0.043517595, -0.059213123000000006, -0.119271284, -0.18270766, -0.20312297, -0.159499815, -0.073286487, 0.0064525691935, 0.0386017065, 0.018469648489, -0.02827735585, -0.0738115385, -0.1015365415, -0.10170873350000001, -0.0705130625, -0.0182433999385, 0.02681853115, 0.0361461005, 0.012261697037850001, -0.0061070360499999995, 0.0221521670348, 0.10416833499999999, 0.204500165, 0.26511486, 0.24256864, 0.14093561799999998, 0.016986036385, -0.05279797, -0.03284412877, 0.035417300377499995, 0.0743442675, 0.049374007500000004, -0.0060301988364, -0.036904816, -0.02189119305, 0.016759292145, 0.04956657, 0.072253766, 0.0936940235, 0.10870708999999999, 0.100176526, 0.063011095, 0.0188992635, 0.001469742252, 0.01943035345, 0.041192604499999994, 0.022936765877999997, -0.04807887795, -0.1350657765, -0.18070015, -0.1566661, -0.080053562], [0.11059804899999999, 0.3125009, 0.45503236, 0.44982293, 0.273527165, 0.00428452538, -0.218401085, -0.278260025, -0.153489552, 0.078633703345, 0.301997005, 0.42516998, 0.41321661499999995, 0.29093388000000003, 0.11944787350000001, -0.038353490455, -0.135896775, -0.144834155, -0.069093902, 0.041569594815000006, 0.1172879305, 0.11630670800000001, 0.046528761550000006, -0.0534221962, -0.142788685, -0.195277, -0.20587108499999998, -0.188051305, -0.16039895, -0.130814505, -0.09339438100000001, -0.03808057995, 0.039021965015, 0.1305428915, 0.213032395, 0.24770315499999998, 0.198507395, 0.063608185535, -0.10348175400000001, -0.214636615, -0.20383861499999997, -0.069822688975, 0.12459101649999998, 0.28728965, 0.34679887, 0.29027355499999996, 0.162008816, 0.025776929597499998, -0.06932310550000001, -0.101020024, -0.076866954, -0.027288333300000002, 0.021376560279999998, 0.0721307205, 0.145654835, 0.236731945, 0.28623095, 0.21365494000000002, -0.004586226799999999, -0.285034915, -0.47853162, -0.480093695, -0.307735975, -0.07834175733, 0.0891538905, 0.146758695, 0.115473091, 0.042154596350000004, -0.033297858285, -0.08681735700000001]]","[[1.03410924, 0.89255533, 0.8280399199999999, 0.8364534650000001, 0.80756344, 0.6511569199999999, 0.408517845, 0.22590080499999998, 0.219607445, 0.36487884000000004, 0.521756395, 0.54968239, 0.39942185, 0.13038253238, -0.128110665, -0.250668825, -0.20324247499999998, -0.0804284445, -0.034755312, -0.15202353600000001, -0.38662721499999997, -0.603629475, -0.68679122, -0.627002595, -0.503795, -0.38932637, -0.302732985, -0.25114946, -0.25147514, -0.29439121, -0.34063326000000005, -0.36770527999999997, -0.38505185500000005, -0.39966538999999995, -0.398145005, -0.37176966, -0.331392265, -0.28844548, -0.240808825, -0.18668425500000002, -0.14672553, -0.15922150000000002, -0.23929852499999998, -0.34374187, -0.39481847999999997, -0.347912885, -0.234547645, -0.13482532, -0.10326454, -0.125006275, -0.148927, -0.140436995, -0.09547934599999999, -0.030562729638, 0.034376264499999996, 0.0928300835, 0.15181357, 0.20317931, 0.205243155, 0.1286758115, 0.01794841635, -0.027801256049999997, 0.047767463435000004, 0.19975962, 0.33350259, 0.37677926, 0.30235828000000003, 0.14299144, 0.007833501226, 0.022747756975], [-0.115356665, -0.128138055, -0.12258946, -0.080069085, -0.027217408499999998, -0.0038712023, -0.0132298414, -0.018870994000000002, 0.01124145977, 0.06901258, 0.1115226055, 0.097509765, 0.028809402505, -0.0454645545, -0.0760486885, -0.059506510500000005, -0.035092854, -0.0408290035, -0.074379523, -0.10572546199999999, -0.11735497, -0.113516925, -0.10521774, -0.0973902165, -0.08464689099999999, -0.0646808945, -0.0482909185, -0.046961071, -0.06596136300000001, -0.10605542800000001, -0.15663706, -0.19148420000000002, -0.179716505, -0.1150228435, -0.039268887499999995, -0.0096769918, -0.0348653445, -0.06843096700000001, -0.0586215675, 0.0093415582705, 0.0988596875, 0.144842655, 0.10479361499999999, -0.005504407156500001, -0.1131074965, -0.134976485, -0.05887130265, 0.0329445613945, 0.0481923045, -0.021297540170499996, -0.10466505100000001, -0.13058202, -0.09126930350000001, -0.0357623705, -0.003946777122, 0.011711955949999998, 0.0334348385, 0.057117750999999994, 0.0556723955, 0.01535306268185, -0.037214652, -0.059161579, -0.042664878, -0.023071124499999998, -0.0386729595, -0.087491287, -0.12479908999999999, -0.113682196, -0.064535763, -0.012129684009999999], [-0.1260823055, 0.03897464248, 0.19245106499999998, 0.257423055, 0.18674252, 0.006768689945, -0.18312945849999998, -0.26659668, -0.1899643, 0.0014239951600000004, 0.200446305, 0.31243654499999995, 0.31101641, 0.235303635, 0.143337245, 0.074361222, 0.0408740525, 0.034875722, 0.0312613035, 0.000977054058, -0.057512419499999995, -0.1024484465, -0.082340898, 0.00534012243, 0.099638245, 0.13090701, 0.08523129450000001, 0.007030604815, -0.049885027500000005, -0.056044629500000005, -0.0050468831075, 0.091466197, 0.202826295, 0.29145744, 0.33345650499999996, 0.32269044, 0.264211155, 0.17429401, 0.08255643750000001, 0.021269931949999998, 0.0065791237, 0.027269267, 0.0466066735, 0.023979525325, -0.04983801305, -0.138613268, -0.1934658, -0.19794854, -0.17220865, -0.146437995, -0.140774835, -0.154192465, -0.16160017499999998, -0.133000715, -0.0625371975, 0.0237031202, 0.088310973, 0.107541555, 0.0765285435, 0.0067792042226500005, -0.073197674, -0.1304656, -0.151049705, -0.151039445, -0.15919437, -0.18350416500000002, -0.20151263, -0.19089398, -0.15909389000000002, -0.13198213]]","[[1.3910193499999999, 1.1846919, 1.0400639, 0.98396234, 0.91779879, 0.699826275, 0.32838702499999994, 0.023400517325000002, 0.03189606644, 0.31398063, 0.55651815, 0.51854475, 0.23411137799999998, -0.09046563982, -0.26604103, -0.22465702499999998, -0.038665096575, 0.1209966215, 0.099871628, -0.11207287368999999, -0.37535758999999996, -0.535302065, -0.551707435, -0.505218, -0.4917704, -0.519794365, -0.5324410199999999, -0.49775049000000005, -0.432314285, -0.36317731999999997, -0.312264135, -0.30846604, -0.36868817, -0.458762125, -0.5098325100000001, -0.484901295, -0.40626661, -0.32100168, -0.259790165, -0.22689735500000002, -0.21661270999999999, -0.230729005, -0.26792248999999996, -0.302382125, -0.29921743500000003, -0.25532730000000003, -0.20210228, -0.16069251, -0.11861234500000001, -0.0576723375, 0.016415280895499998, 0.08274321600000001, 0.128694785, 0.15617953, 0.18155499, 0.22898004, 0.29830719, 0.348257885, 0.3249127, 0.21609588500000002, 0.08876955049999999, 0.056669975, 0.17672332950000003, 0.39071053999999994, 0.58442473, 0.642393765, 0.46170714500000004, 0.042780057955000006, -0.38759085499999996, -0.492746225], [-0.17451231499999997, -0.19424744, -0.21324345, -0.198798285, -0.164538825, -0.14088756, -0.13460198, -0.12770958, -0.1058360515, -0.077762318, -0.06647347199999999, -0.0886842015, -0.139638345, -0.188166085, -0.19647057499999998, -0.154775735, -0.0932404535, -0.054403481, -0.057537274, -0.094425414, -0.145082155, -0.184904285, -0.192098685, -0.16048891, -0.1022751905, -0.043576697, -0.013268150000000001, -0.0211148235, -0.051890416999999994, -0.0860790115, -0.114014805, -0.1263082, -0.10567657750000001, -0.0473877735, 0.014621755728500002, 0.0298023085, -0.0079359065075, -0.045711078499999995, -0.023925044074, 0.067423517, 0.176991315, 0.231337455, 0.19208361, 0.084274979, -0.014986183694999999, -0.027035643585, 0.0558111581, 0.148829385, 0.15598175, 0.071867954, -0.016320313525, -0.02274332633, 0.052798241700000005, 0.133334322, 0.15429287, 0.12685072, 0.10386978, 0.109001505, 0.11964250500000001, 0.1071977785, 0.0748017285, 0.048027282, 0.035837197, 0.016720982316999998, -0.033762798749999996, -0.10581488800000001, -0.15598538, -0.15470558, -0.117672577, -0.0778427585], [-0.033844239025, 0.05017510065, 0.1200733535, 0.11688788450000001, -0.005122968555, -0.21252152, -0.38780609499999996, -0.41073831499999996, -0.249751835, 0.01859804849, 0.267393865, 0.39507818, 0.3724789, 0.245036435, 0.093787735, -0.013971561946, -0.0465329095, -0.00519249956, 0.0747719695, 0.133228065, 0.122273981, 0.039728431149249996, -0.0699939185, -0.14434384, -0.14459185, -0.08188098549999999, -0.0030241818335, 0.047429872, 0.052903788, 0.027958419499999998, 0.0030046065745, -0.00045644244700000005, 0.018892815599999998, 0.056190245, 0.1137092965, 0.188674205, 0.25147631, 0.25423423, 0.176312645, 0.056108700325000004, -0.03185331131, -0.03341217195, 0.042061606785, 0.12948181050000002, 0.16399928500000002, 0.13199512500000002, 0.06694385, 0.006564275266, -0.033327710499999996, -0.0550707125, -0.0681270315, -0.0783581535, -0.07715006149999999, -0.0435305055, 0.0348071086185, 0.137501084, 0.206819275, 0.177742665, 0.0317769218815, -0.17020264950000003, -0.31983214, -0.34281357, -0.25244887, -0.125801425, -0.035895162, -0.00853235615, -0.0284464915, -0.069743553, -0.11472229950000001, -0.15072786000000002]]","[[0.9524064133333333, 0.8173346983333333, 0.7602589672222223, 0.8171586888888889, 0.8834332152222223, 0.8318392908888889, 0.6418907454, 0.4302336671888889, 0.36001837710544443, 0.4718084615, 0.6260962277777778, 0.648187605, 0.4927960627777778, 0.25095742055555553, 0.04758629549611111, -0.042833643705555556, -0.020472139240555555, 0.05180282988888889, 0.07867631222222222, -0.009480856531611109, -0.19853112843055556, -0.3977831956295556, -0.5173553899444445, -0.5429816199872222, -0.5259796, -0.5049013423104445, -0.47699929393333335, -0.4458405034444444, -0.43746104994444446, -0.45403844020816664, -0.4618759095, -0.4417393895, -0.41522888, -0.4094064316666667, -0.42415606777777776, -0.44995628388888886, -0.48862181944444444, -0.5314705177777778, -0.5418424905555556, -0.4831132172222222, -0.3645585049444445, -0.2569367548888889, -0.245920061, -0.35128545, -0.48925566833333334, -0.5201071805555556, -0.3600708997, -0.07708612444444445, 0.1524567017861111, 0.22156608011238887, 0.16670838933333332, 0.06664915231777778, -0.030959589620722223, -0.09569813266666667, -0.10309703844444444, -0.05222810050722222, 0.030344027722222222, 0.10030458422938889, 0.0982397445, -0.013809897833333333, -0.18207194227261111, -0.2682996338888889, -0.18561970944444442, 0.0004512961666666669, 0.15682451639666667, 0.21157126356944445, 0.17091248755555555, 0.07930437961833334, 0.016961200418561112, 0.09047032024677777], [-0.030611324410166663, -0.062187295612777777, -0.09265403174999999, -0.10930380098035, -0.11103689379788889, -0.10002464504500001, -0.0691040503888889, -0.009672785316111111, 0.06700413342444445, 0.12667280566666667, 0.13420746611111112, 0.07483620283005556, -0.0348892750215, -0.15039388913333332, -0.22555218638888888, -0.23781273777777778, -0.19477210688888888, -0.12740259988888888, -0.06867195483622222, -0.036452342013444446, -0.034856478997888886, -0.05656773058538889, -0.08436206514777778, -0.09999871342777779, -0.09540866161111111, -0.0790839228888889, -0.06873611265594444, -0.07380270910855556, -0.09463235411111111, -0.133310455605, -0.18771649938888887, -0.23586978388888888, -0.23768849, -0.16582522571666666, -0.04399096478438889, 0.05981848232983333, 0.09424588635033332, 0.06609236426444444, 0.021853508721, 0.007114429902444445, 0.036492972144333335, 0.08214600870777777, 0.0916317125611111, 0.028809362792911113, -0.0890681307995, -0.19270918364605558, -0.21657428161111109, -0.16091699281888888, -0.08655831377777778, -0.0495363508375, -0.053598733096111115, -0.06564927406294445, -0.06363242359311111, -0.05677627505855556, -0.05444893518216667, -0.039547150085527775, 0.005518283951388889, 0.06452040834388889, 0.09570128894444445, 0.07539606807811111, 0.0307867069145, 0.016255720127666667, 0.05074978571752333, 0.09291159522544444, 0.08411172836544445, 0.008692158140722222, -0.08800634699938889, -0.14261554280055555, -0.12820782494444444, -0.059832511692855556], [-0.03947091423605555, 0.10547839519233333, 0.22258401544444445, 0.2381873273488889, 0.11745639586555555, -0.09486840609277777, -0.28621834310238886, -0.3473957920555556, -0.25017188790555556, -0.06158639273055556, 0.11437441041111111, 0.20866553916166666, 0.21409931776333335, 0.16147373325366665, 0.08304417990888888, 0.0009563268311111109, -0.06261469043422223, -0.0813341713975, -0.041999604837166665, 0.03453649004561111, 0.10180874021666667, 0.12397679464444444, 0.10125331285150001, 0.05755222075666667, 0.012667000890166667, -0.024100038993333333, -0.042871644055555554, -0.03481240372222222, -0.008182640777777778, 0.013212851320666665, 0.016445303702333335, 0.016683619114833334, 0.042170302456500004, 0.10610140319372223, 0.1946192496666667, 0.270287238, 0.2862285663292222, 0.21469488870955555, 0.07753177027366666, -0.05475741349161111, -0.10882784264322222, -0.06259786233333334, 0.03988156048661111, 0.12422680366666666, 0.14238042348555557, 0.10164265819055557, 0.04339678695277778, -9.421822477777803e-05, -0.025836793391055556, -0.04909049928333333, -0.0848435351545, -0.13186586327777777, -0.1639359246518889, -0.14324466893403331, -0.053788106635000006, 0.07458678066833334, 0.17734892402355557, 0.1941880359, 0.10524738239233333, -0.05567112654888889, -0.21532981552222222, -0.3020131875, -0.2906924948333333, -0.21540094233333335, -0.13744793455555557, -0.09640530103316668, -0.08970552573333332, -0.0951616985811111, -0.101335639, -0.11273906755555556]]","[[0.7418706205555555, 0.6627640444444444, 0.63050331925, 0.6398155304127777, 0.6119759011111111, 0.4905050933333333, 0.32715027694444443, 0.2509394663694444, 0.3554131764933333, 0.6010649605555556, 0.8225866766666666, 0.8560522155555556, 0.6752963542222222, 0.4047477325066666, 0.212185575, 0.1834539601111111, 0.2756947056027778, 0.36748402044444445, 0.3465896256616666, 0.18533998342333333, -0.03757916314344444, -0.19758035395388887, -0.22987283116666668, -0.18638318966666667, -0.1745422018888889, -0.2331524611777778, -0.3048906016666667, -0.3348507044444445, -0.3328116672222222, -0.32978421500000005, -0.3332411088888889, -0.34287342388888886, -0.3671330744444445, -0.4033322016666666, -0.42703328777777777, -0.425223535, -0.417514425, -0.42438731222222226, -0.43660268944444447, -0.4267823211111111, -0.38263334722222225, -0.3321538227777778, -0.3244960883333334, -0.37648561611111114, -0.4483881588888889, -0.4753565861111111, -0.4217366433333333, -0.31151766409777776, -0.20789393555555555, -0.15300496646555556, -0.1395403925005, -0.14230684163888888, -0.14668734421944443, -0.15119009084966667, -0.15426857943133332, -0.1411062398888889, -0.09297518708227777, -0.021301384663333332, 0.011808175722222224, -0.0581249946095, -0.2097731774388889, -0.32451514933888886, -0.3044370168961111, -0.18575233357999998, -0.08095549297344444, -0.04380940638888888, -0.03639933167777778, -0.007888103551666666, 0.042740164457333335, 0.10234064176833334], [-0.14245675422222223, -0.1335105192777778, -0.12204131132777779, -0.10028191947816666, -0.07606917851922222, -0.062375159444444446, -0.05621987153672223, -0.03778182866666666, 0.006449388368888889, 0.06452244402433333, 0.10368206055555555, 0.09062878911111111, 0.017049688897777776, -0.08539768246616668, -0.16317058133333334, -0.17949043233333334, -0.13867642216666667, -0.077791697495, -0.03436065313711111, -0.02562046187538889, -0.050260254592388885, -0.09036251232672222, -0.11692022883783335, -0.10788010945186667, -0.06343218848855556, -0.00970909258238889, 0.016963143441388887, 0.00017709632066666668, -0.04817128591616667, -0.10596345083333332, -0.15369390516666667, -0.17405141644444444, -0.15196406833372222, -0.08782192757333335, -0.013488425227388889, 0.02679358862038889, 0.02243640664227222, 0.0055804423058888886, 0.014797231916544444, 0.06132387557783333, 0.12020223205555557, 0.1471472208888889, 0.11080737984677778, 0.017132206621427778, -0.08582897581222221, -0.1326937612872222, -0.0985763523688889, -0.03294555043977778, -0.011195741555555557, -0.0550953780245, -0.11784708342904444, -0.13915022081444445, -0.10348474592777779, -0.04609005573555556, -0.003936565265388889, 0.02267744320972222, 0.05021044172222222, 0.07628997951105555, 0.08036817693888888, 0.05317531469798333, 0.017131255099222222, 0.0075449991891111115, 0.031455865188666665, 0.05702017920188889, 0.04430663422755556, -0.014558137601277778, -0.08322306622222221, -0.11560295152505555, -0.09625468711111111, -0.03949976311027778], [-0.039663711888333335, 0.10454509925733334, 0.23265251815944446, 0.2777373940555556, 0.19648540032722223, 0.015651602199944447, -0.1692540775461111, -0.25174892695555556, -0.18473168019444444, -0.008596763973333333, 0.17998590493633335, 0.28994458866666667, 0.28544230277777777, 0.19379812889777778, 0.07328724871211112, -0.023478975932555556, -0.06509682082, -0.04481401866905555, 0.015528514424388889, 0.07171578179866667, 0.0869185633538889, 0.06100543201658334, 0.02567483175666667, 0.00978830329111111, 0.011893760140944445, 0.010128115888166667, -0.006553520703722222, -0.02758141918722222, -0.03808081894361111, -0.0316418186315, -0.005431686735888889, 0.042426178805222224, 0.10531487667888889, 0.16625781844444443, 0.20717610366666667, 0.21423735734809443, 0.17681627479944445, 0.09453019145000001, -0.010100885136944444, -0.09314271464277779, -0.11229265462333334, -0.05667149079833333, 0.04015693856383333, 0.11950335585277777, 0.13961668793333332, 0.10220827156500001, 0.03896232654046111, -0.02147120558238889, -0.068004015402, -0.09791016364, -0.11061252783333334, -0.1080685920388889, -0.08981775041005555, -0.04990123766666667, 0.014117457800594445, 0.08746423656888888, 0.13477955749444445, 0.11495938472222222, 0.010943162543833334, -0.14502398195915, -0.2784656343333333, -0.32091590394444447, -0.2606907893888889, -0.14608641209222223, -0.043500778261666664, 0.0069790076077, 0.005234614393166667, -0.024889054901555557, -0.05868418189953333, -0.08257743166666667]]","[[1.059037175, 1.0346288975, 0.9769842975, 0.917034165, 0.844863315, 0.72291258, 0.5509016299999999, 0.413346935, 0.43097161, 0.626463115, 0.8583756925, 0.9406571725, 0.809861205, 0.550352971, 0.2981069328225, 0.147957485, 0.11835285000000001, 0.1549588925, 0.1631995825, 0.07277813, -0.1120602855975, -0.3192273275, -0.4691603325, -0.5338355925, -0.52826448, -0.4614695125, -0.3418239775, -0.2240787165, -0.19236556324999998, -0.27468367, -0.408081045, -0.50351143, -0.5152861575, -0.44740244250000005, -0.3377465925, -0.254256748, -0.26234605525, -0.36309255999999995, -0.4775576675, -0.50813577, -0.422030065, -0.282733415, -0.1957134835, -0.21867142675, -0.32567283674999997, -0.44422244499999997, -0.507718975, -0.48185732000000003, -0.3731756065, -0.2297915644475, -0.121169775975, -0.0975325245, -0.15777664875, -0.257230640635, -0.33496987125, -0.33433250000000003, -0.22800274, -0.0534478339725, 0.0879312795, 0.10501188624999999, 0.0061763602875, -0.100583033, -0.11221933621499999, -0.021805802500000002, 0.109382588775, 0.22170289088099998, 0.2771570225, 0.254341005, 0.167450027, 0.08885812399125], [0.02565348093, 0.06394517145, 0.048159289184000004, -0.012049549465, -0.08713686675, -0.13426819874999998, -0.12277643625, -0.05673347811275, 0.03306146626425, 0.110488609675, 0.1500624565, 0.14206592175, 0.08321028547499999, -0.02069456099075, -0.13785555025000001, -0.21934765250000002, -0.235979375, -0.19229182, -0.1097208095, -0.0163820931935, 0.051800264914, 0.06510595625, 0.0194729700475, -0.059187602075, -0.12452879109825, -0.1364439955, -0.0922150995, -0.03092016356825, -0.003186680125, -0.03413055515525, -0.10900846525, -0.18341339, -0.2056349475, -0.14778085175, -0.031171015184500002, 0.08343206215849999, 0.14574394, 0.1500490795, 0.12260154325, 0.092892058, 0.07517859125, 0.06637023, 0.056103334, 0.028705248050874998, -0.027791470999999998, -0.0930579818725, -0.1210264345, -0.09623584875, -0.055437069250000005, -0.041844189700000006, -0.058956849875, -0.07710536825, -0.078616776, -0.0779680255, -0.087675702, -0.093086671, -0.075211035705, -0.0409917100825, -0.01790147675, -0.025983782999999996, -0.055947260040925005, -0.07428244525, -0.0562644722865, -0.0063299787500000005, 0.04402006535325, 0.058834567575, 0.0232954037434, -0.051299931045, -0.130974449, -0.16864147], [-0.01388795075, 0.1445472746275, 0.297487007, 0.38966859249999997, 0.36819315, 0.2241127066585, 0.0178096955, -0.14600525039, -0.18483310500000003, -0.09336143144825, 0.0584927379225, 0.1766797635, 0.2021508725, 0.1376412139475, 0.02831595825, -0.0703838963, -0.1142935905, -0.08806171778750001, -0.0164880255, 0.0507103648, 0.080777572155, 0.08453978033574999, 0.10023408727574999, 0.147127026, 0.1968499565, 0.20086143281625, 0.14224930049999998, 0.052685858249999995, -0.02248812175, -0.0605736002825, -0.06028036375, -0.0258197653575, 0.0352519880995, 0.1105300905, 0.18844416, 0.2495207125, 0.25624139, 0.17876723474999998, 0.037800914574000005, -0.09232615250000001, -0.13758135953975, -0.079583038875, 0.03758886175, 0.145026433535, 0.19825223, 0.19416273, 0.151627218, 0.08538946525, 0.0008605914859999999, -0.090000836975, -0.16217906225, -0.193569045, -0.184215345, -0.14912970025, -0.09636408834999999, -0.024740733008, 0.056468447114249996, 0.1105442405, 0.08717669725749999, -0.03372580149275, -0.2045755725, -0.3325057075, -0.3503855825, -0.264478805, -0.14023106175, -0.0454116870015, -0.006010451875, -0.00843176275, -0.03177465420575, -0.065063069125]]","[[0.8747774723429952, 0.7784727878381642, 0.7321119894444444, 0.7530802038268116, 0.7603774394927537, 0.6692252861835749, 0.49317891797584545, 0.3500770495905797, 0.36727088547772946, 0.5481792854589372, 0.7418241792149759, 0.776711727089372, 0.6135003384782608, 0.3568743671140096, 0.15182780449689615, 0.08043807039371981, 0.12640366146183576, 0.20251066003623192, 0.20618513592777776, 0.08595328951814009, -0.11727320750141304, -0.30049206427541064, -0.38607666124396134, -0.38674586408864736, -0.3734787590821256, -0.38108463358183575, -0.38453786471739126, -0.36865861862560384, -0.35999234180072465, -0.3766207635687681, -0.39893101386473434, -0.4068114097342995, -0.40736860943236713, -0.4117214635144928, -0.4141362318719807, -0.4136768883864734, -0.4281913308780193, -0.46295026, -0.4877010783695652, -0.4618853344927536, -0.3799134224637681, -0.29300460963768116, -0.2735348671231884, -0.3449445626678744, -0.4501502948900966, -0.4907523913768116, -0.4061405371884058, -0.23180912371400964, -0.07277822422584541, -0.00016363290757246147, -0.0039925808520289855, -0.045616281161352655, -0.09781736020224638, -0.1408945285681884, -0.15558981706555555, -0.12766699582439614, -0.05697042667828502, 0.027377760597524153, 0.05931621916183575, -0.01757883763818841, -0.16956183114141304, -0.27086508396859904, -0.2277054466108937, -0.08340990354927535, 0.047253826111183575, 0.10185770628037197, 0.094634896794686, 0.06422546850724638, 0.04779842303299758, 0.09542104313586354], [-0.07190088450147343, -0.07674533193719807, -0.08706415492285989, -0.0926959066513116, -0.09271614449657005, -0.08812185396280194, -0.07050297947852657, -0.028032459746349034, 0.03624867898809058, 0.09753992721456521, 0.12300359287681159, 0.09047163846355072, 0.003097173703816425, -0.10521736517248913, -0.18699105773792268, -0.21004672428743962, -0.17575753980676329, -0.11429645364516908, -0.05910819601014492, -0.029124970368210143, -0.03025071918090338, -0.05539063305961353, -0.08497408824841787, -0.09810221891397586, -0.08530412496919203, -0.056402701791859904, -0.03453804307154589, -0.036044200807984296, -0.06250419307164251, -0.1084839447760471, -0.16265780179589373, -0.20215009449275365, -0.19623610547118356, -0.1295571342673913, -0.029056823724838164, 0.048539865042509664, 0.06974151086635025, 0.050733708878405795, 0.03192661026632367, 0.04187214038272947, 0.07793425285864734, 0.10834969504202899, 0.09533482287299516, 0.023718758186783213, -0.07966719474422705, -0.15361753891088165, -0.15280807144782607, -0.09684056429724638, -0.04973268526449275, -0.05094999381391305, -0.08223168325550242, -0.09910048058799519, -0.08291400100908213, -0.05489423410613527, -0.03682096132502415, -0.019476394859045894, 0.014419745635700483, 0.05587516296964976, 0.07421696646014493, 0.05251141212004106, 0.013536427826715096, 0.0006591242355555554, 0.028402743139234785, 0.06436207860971015, 0.061575818347380434, 0.005123648179106281, -0.0714090400428657, -0.11896020593004832, -0.11467602032850241, -0.06518465904484058], [-0.03621783102147343, 0.1101685551469203, 0.23673158074082123, 0.27514143441497585, 0.18452162660555554, -0.005209996476210146, -0.1957084834776087, -0.2795418670122222, -0.21319717373913044, -0.04269199397320169, 0.1356122333583454, 0.23983219864275362, 0.2435595140396135, 0.1724192288416063, 0.07166357221565217, -0.01897296434410628, -0.07043460365400966, -0.06633335017513285, -0.01365978176642512, 0.05281103534099034, 0.09259155444219808, 0.09145398293989251, 0.06826016121343116, 0.04846897036859904, 0.0363546730352657, 0.020124568147699272, -0.0029349454822946864, -0.020255680623671498, -0.02304778097669082, -0.01591349886764493, -0.003074127025458937, 0.022332116657741548, 0.06872207633271256, 0.13283402121224638, 0.19927330492753623, 0.2432090474339541, 0.23474663396898554, 0.15776315242806763, 0.03424833022127053, -0.0763469451671256, -0.11408474136020894, -0.06223663686702898, 0.03970224242410628, 0.12488612590432367, 0.14846642626908213, 0.11395641250241546, 0.05558577343184299, 0.0017614851164492753, -0.04068810058576329, -0.07565257131123189, -0.10613468767949275, -0.12956746470289857, -0.13435577328780193, -0.10342818116334783, -0.029817337104089372, 0.06722991188470531, 0.1430734850662065, 0.1488307359879227, 0.06188850178844203, -0.091657760415593, -0.24137744417632848, -0.31420904508454106, -0.2854343299879227, -0.19166565040241548, -0.0969643614531401, -0.04480426066344203, -0.03751045517507246, -0.05329577491637681, -0.07371835528750363, -0.093406704330314]]"
