,experiment_id,num_time_steps_in_coordination_scale,fnirs_time_steps_in_coordination_scale,final_team_score,final_ai_score,team_score_per_second,ai_score_per_second,s1_d1,s1_d2,s2_d1,s2_d3,s3_d1,s3_d3,s3_d4,s4_d2,s4_d4,s4_d5,s5_d3,s5_d4,s5_d6,s6_d4,s6_d6,s6_d7,s7_d5,s7_d7,s8_d6,s8_d7,left_hemisphere,right_hemisphere,medial,average,score_diff,performance
0,exp_2022_09_30_10,130,"[0, 1, 2, 3, 4, 5, 6, 7, 8, 9, 10, 11, 12, 13, 14, 15, 16, 17, 18, 19, 20, 21, 22, 23, 24, 25, 26, 27, 28, 29, 30, 31, 32, 33, 34, 35, 36, 37, 38, 39, 40, 41, 42, 43, 44, 45, 46, 47, 48, 49, 50, 51, 52, 53, 54, 55, 56, 57, 58, 59, 60, 61, 62, 63, 64, 65, 66, 67, 68, 69, 70, 71, 72, 73, 74, 75, 76, 77, 78, 79, 80, 81, 82, 83, 84, 85, 86, 87, 88, 89, 90, 91, 92, 93, 94, 95, 96, 97, 98, 99, 100, 101, 102, 103, 104, 105, 106, 107, 108, 109, 110, 111, 112, 113, 114, 115, 116, 117, 118, 119, 120, 121, 122, 123, 124, 125, 126, 127, 128, 129]",10,5,"[0, 0, 0, 0, 0, 0, 0, 0, 0, 0, 0, 0, 0, 0, 1, 1, 2, 2, 2, 2, 3, 3, 3, 3, 3, 3, 4, 4, 4, 4, 4, 4, 4, 5, 5, 5, 5, 5, 5, 5, 5, 5, 5, 5, 5, 5, 5, 5, 5, 5, 5, 5, 5, 5, 5, 5, 5, 5, 5, 5, 5, 5, 5, 5, 5, 5, 5, 5, 5, 5, 5, 5, 5, 5, 5, 5, 5, 5, 5, 5, 5, 5, 5, 6, 6, 6, 7, 7, 7, 7, 7, 7, 7, 7, 7, 7, 7, 7, 7, 7, 7, 7, 7, 7, 7, 7, 8, 8, 8, 8, 8, 8, 8, 8, 8, 8, 9, 9, 10, 10, 10, 10, 10, 10, 10, 10, 10, 10, 10, 10, 10]","[0, 0, 0, 0, 0, 0, 0, 0, 0, 0, 0, 0, 0, 0, 0, 0, 0, 0, 0, 0, 0, 0, 0, 0, 0, 0, 0, 0, 0, 0, 0, 0, 0, 0, 0, 0, 0, 0, 0, 0, 0, 0, 0, 0, 0, 0, 0, 0, 0, 0, 0, 0, 0, 0, 1, 1, 1, 1, 1, 1, 1, 1, 1, 1, 1, 1, 2, 2, 2, 2, 3, 3, 3, 3, 3, 3, 3, 3, 3, 3, 3, 3, 3, 3, 3, 3, 3, 3, 3, 3, 3, 3, 3, 3, 3, 3, 3, 4, 4, 4, 4, 5, 5, 5, 5, 5, 5, 5, 5, 5, 5, 5, 5, 5, 5, 5, 5, 5, 5, 5, 5, 5, 5, 5, 5, 5, 5, 5, 5, 5, 5]","[[1.2914416, 1.19461125, 1.2178051, 1.3180331, 1.3502967000000001, 1.20520905, 0.93798825, 0.7396142349999999, 0.76381908, 0.970236285, 1.1548007, 1.13681385, 0.903638755, 0.586189725, 0.33672063, 0.238290275, 0.27671152, 0.35409917, 0.347300235, 0.195891235, -0.04815651864500001, -0.26030344, -0.347233585, -0.33065721000000003, -0.32340407499999996, -0.404850245, -0.539424715, -0.63528785, -0.644591015, -0.58685621, -0.5166874450000001, -0.49230139, -0.543367365, -0.6425848999999999, -0.724252255, -0.74840951, -0.73296639, -0.7150814200000001, -0.7023976399999999, -0.6748987599999999, -0.62459614, -0.579793935, -0.579043805, -0.62234742, -0.660940565, -0.6399348, -0.549461165, -0.4371928, -0.36810803999999997, -0.36222731, -0.38182663499999997, -0.37927349, -0.33551429, -0.265134025, -0.202154935, -0.174169685, -0.18132745, -0.20514495, -0.23646179, -0.27618412, -0.30286806, -0.26776698499999996, -0.1563710015, -0.0383169874, -0.005233824403, -0.0713190745, -0.16059879, -0.17036206, -0.03578679675, 0.23190090349999998, 0.5315372349999999, 0.716148805, 0.688961745, 0.483875645, 0.268162185, 0.22312595500000001, 0.37835432500000005, 0.583002705, 0.658610815, 0.5630083650000001, 0.40034037, 0.305491895, 0.34174631499999997, 0.47679961, 0.613634895, 0.65147982, 0.55378394, 0.37714218000000005, 0.230945765, 0.19468108999999997, 0.25631895, 0.32809486, 0.33356133, 0.276454225, 0.21428591, 0.18212177000000002, 0.167145105, 0.14520797, 0.111451099, 0.068631072, 0.00473307672, -0.099196243, -0.230369095, -0.32278386, -0.30254004, -0.1672771645, -0.00714296708, 0.0680617215, 0.02783375782, -0.060132644, -0.1027033745, -0.0595848465, 0.03903164855, 0.1236468285, 0.135071465, 0.0705531435, -0.00813300249, -0.029630201000000002, 0.009586915704999999, 0.036356857, -0.019263497365, -0.148190428, -0.278851095, -0.35090165, -0.34861461499999996, -0.27818408, -0.1457418385, 0.03618514471, 0.22897986499999998, 0.3419893], [-0.022733349, -0.00808642285, -0.005803546, -0.0348207985, -0.09059033899999999, -0.14170795, -0.144314955, -0.073621397, 0.050674446819999996, 0.171922555, 0.23167073500000002, 0.20087599, 0.09063020999999999, -0.0539265808436, -0.17293295, -0.22014109, -0.18687155, -0.104919201, -0.021887605861099998, 0.02804579, 0.0331163415, 0.005025031323, -0.0255241615, -0.030439927500000002, -0.008442396133, 0.0127458702, 0.00448340828, -0.034281976, -0.085527432, -0.139681145, -0.19505108, -0.235742735, -0.22879306, -0.155757625, -0.046828723917, 0.036750485949999995, 0.060516525, 0.0389125845, 0.008381764438, -0.0026105312334000004, 0.01235157275, 0.0355146935, 0.033138352, -0.0232393940175, -0.1243726805, -0.21287013999999999, -0.23231957, -0.19003758999999998, -0.14775359, -0.152010565, -0.190683945, -0.213430545, -0.18739974, -0.127606424, -0.068106123, -0.021198510865000002, 0.019360378485, 0.0519539985, 0.060659367, 0.037404631, 0.007037332625, 0.01207493631, 0.0653912685, 0.131370455, 0.14988908, 0.083613958, -0.042207096385, -0.15105364, -0.17406054, -0.098898755, 0.029361115135, 0.141032956, 0.176115345, 0.1092126965, -0.035306350903, -0.18726984000000002, -0.26484937, -0.22837400500000002, -0.1080283995, 0.021065468155, 0.0900366495, 0.0794095985, 0.034791867000000004, 0.018491001, 0.0324771635, 0.018666242439, -0.0712968755, -0.223194465, -0.36648471, -0.42097557, -0.3483039, -0.1759309875, 0.02553058989, 0.19024082499999997, 0.286568945, 0.315692335, 0.29384137, 0.238775435, 0.17308877, 0.12925879, 0.12784700499999999, 0.15409545, 0.174588395, 0.169864965, 0.14915856, 0.144549715, 0.185767365, 0.27074546, 0.35980736, 0.39899046499999996, 0.36515562500000004, 0.2991634, 0.274056915, 0.321200205, 0.40361834, 0.4593996, 0.451412105, 0.37760775, 0.26314795, 0.155705795, 0.106316125, 0.13900871, 0.236184495, 0.34812034, 0.41962694, 0.418291745, 0.3473917, 0.24151096, 0.15107044, 0.112436065], [-0.12066774949999999, -0.00314174014, 0.0985633305, 0.09915639300000001, -0.053376608299999996, -0.30764342, -0.5149992999999999, -0.53393874, -0.342621345, -0.04687271814, 0.2151144175, 0.361311545, 0.381907635, 0.311244015, 0.19846555, 0.0903631345, 0.023226715800000002, 0.01953439775, 0.0766064835, 0.15542194, 0.19943360999999998, 0.17695609999999998, 0.1040354565, 0.0246025148955, -0.026523032749999998, -0.042081152499999996, -0.034427333, -0.0194199255, -0.010218091549999999, -0.014275758199999999, -0.0266768055, -0.0300150805, -0.006582457288, 0.049866845, 0.133463189, 0.22588441, 0.293937855, 0.29985948, 0.230519435, 0.119558844, 0.02994308165, 0.00947613485, 0.0585807755, 0.13376066650000001, 0.18277067, 0.184371555, 0.15658314, 0.127159745, 0.10192546, 0.059293327, -0.0262467264, -0.146201708, -0.24272291, -0.24476973000000002, -0.128751064, 0.056541192700499995, 0.22080608000000002, 0.28531384, 0.21880461499999998, 0.046810646615, -0.1581245955, -0.30690115, -0.33993662, -0.264628705, -0.1486452425, -0.0654996155, -0.04484373, -0.07149901, -0.11604801099999999, -0.157936065, -0.19172375500000002, -0.221923025, -0.24914795, -0.26026608, -0.23717279000000002, -0.17748306, -0.1013102725, -0.0369233495, -0.00164374652071, 0.005962033100000001, -0.0006019849615, -0.0088540832, -0.010738290800000001, 0.0040403396925000005, 0.046642279, 0.11320388899999999, 0.17236975000000002, 0.179491615, 0.11086238650000001, -0.01160953159, -0.1267858365, -0.17215162, -0.1260610545, -0.017713967275, 0.10209935149999999, 0.19748810500000002, 0.258074515, 0.28464437, 0.27110747, 0.20020913499999998, 0.06425003951, -0.1041629595, -0.23213774, -0.255113595, -0.170300405, -0.033377328830000004, 0.09165782950000001, 0.16907158500000002, 0.19185601500000002, 0.16769469999999997, 0.1083564005, 0.030911978372500003, -0.0377976724, -0.0694293815, -0.050389450499999995, 0.008337507082499999, 0.077038418, 0.12674096499999998, 0.14596752000000002, 0.140077585, 0.11872049999999999, 0.085832882, 0.041458114000000004, -0.0079419492245, -0.04577562, -0.055914317000000005, -0.035004144, 0.01018659689, 0.075192515, 0.15714827]]","[[1.0850575, 0.9953697499999999, 0.9225196, 0.887170565, 0.89034066, 0.8899260649999999, 0.684689665, 0.014737123750000001, -1.037185975, -1.9502365, -2.3088218, -2.2186151, -2.0410111, -1.95823105, -1.91507265, -1.8463531, -1.78990915, -1.7770503500000001, -1.77580875, -1.7728785999999999, -1.80578035, -1.89048495, -1.92880385, -1.7287536000000001, -1.20223228, -0.53544522, -0.0478573423, 0.12056283649999999, 0.0876712315, 0.056935206999999995, 0.1366935035, 0.284106135, 0.374078235, 0.328056065, 0.19950302, 0.130035105, 0.208806565, 0.391870885, 0.56301034, 0.655481095, 0.68332671, 0.6742472899999999, 0.6316811, 0.571754495, 0.5603718599999999, 0.674159, 0.8894786499999999, 1.03067947, 0.923647355, 0.621189125, 0.34652047, 0.23927074999999998, 0.28229952, 0.40512178, 0.54442881, 0.63035508, 0.60839243, 0.49110039, 0.356839055, 0.31942772999999997, 0.47417516, 0.80055769, 1.13842907, 1.3269628, 1.35210715, 1.3193525, 1.28794305, 1.17664475, 0.88647455, 0.503228755, 0.26922833, 0.300472725, 0.38608604999999996, 0.19202856723500003, -0.305187779, -0.741570085, -0.8130036850000001, -0.61057171, -0.434317885, -0.44612391, -0.57994498, -0.704868015, -0.75762697, -0.7368983, -0.66894715, -0.603634135, -0.603077295, -0.691353185, -0.81299063, -0.880305055, -0.87710386, -0.87981084, -0.9517488249999999, -1.049707, -1.0778085, -1.01447218, -0.9273225650000001, -0.87257522, -0.8401403449999999, -0.8070034800000001, -0.7936586099999999, -0.82849886, -0.85335808, -0.7131412699999999, -0.330876274, 0.13024614947, 0.43433402, 0.52548458, 0.484630405, 0.398532165, 0.34387730499999997, 0.36749218, 0.44277032, 0.49549630499999997, 0.48287862, 0.41338164499999996, 0.31805731000000004, 0.24237209, 0.21428414499999998, 0.219667635, 0.237755295, 0.272086215, 0.343654925, 0.472492775, 0.621880525, 0.657610845, 0.41970489499999997, -0.11134228981, -0.7264230349999999, -1.08670125], [0.10306974699999999, 0.14221762500000001, 0.1294251585, 0.046887534711000003, -0.051306680949999996, -0.0816528635, -0.03977886615, 0.0164205306, 0.050366018, 0.0664987495, 0.093587671, 0.13970753, 0.155638315, 0.0807445605, -0.072627486852, -0.20683038, -0.220420865, -0.1097897955, 0.03831411413, 0.14272346, 0.17940815000000002, 0.16385949, 0.126042465, 0.0933120025, 0.0732830955, 0.055093595, 0.0293773555, -0.0009201147979999999, -0.04136523, -0.1118402785, -0.20254683, -0.26185492, -0.24201250500000002, -0.1431997685, -0.017576100509999998, 0.0598545465, 0.0387410925405, -0.04236506719, -0.0755105905, -0.008478042845, 0.1053949665, 0.18187847999999998, 0.174603905, 0.08912723850000001, -0.036029884129999995, -0.1310769045, -0.14167401, -0.10690130699999999, -0.104132436, -0.14071662999999998, -0.16494658999999998, -0.15082025500000001, -0.127219365, -0.12434922999999999, -0.143262785, -0.16771404499999998, -0.16854651, -0.13728959, -0.096940349, -0.08119021050000001, -0.10222814200000001, -0.12506455, -0.11219348050000001, -0.062650231, -0.0166958738, -0.019170742249999997, -0.070444643, -0.12127107499999999, -0.12239038000000001, -0.0700723975, -0.0015478508185000001, 0.038066488, 0.023359330384999998, -0.031964537599999995, -0.080034785, -0.096261557, -0.08943965699999999, -0.0667882885, -0.0236175747615, 0.0523719177, 0.15566200500000002, 0.23729878, 0.25142426, 0.214916965, 0.16531527000000001, 0.10417453, 0.032674514771, -0.03001410565, -0.07768572800000001, -0.10057461200000001, -0.069414347, 0.01399439454, 0.09764471150000001, 0.14163256000000002, 0.1651089, 0.197206665, 0.22453858000000002, 0.22027207000000001, 0.182514115, 0.12870842, 0.0746034775, 0.0295325675, 0.0148118635, 0.051868924500000003, 0.1250479765, 0.19058323000000002, 0.21429099999999998, 0.19583848499999998, 0.1700509, 0.153527015, 0.1141227595, 0.0483542145, 0.022845528, 0.084539881, 0.18848956, 0.23943702000000003, 0.19221469500000002, 0.090536291, -0.00025656547050000007, -0.05424683499999999, -0.0714295445, -0.0400794271, 0.05215531195, 0.16838707, 0.235435865, 0.197631465, 0.067505735055, -0.07051099175, -0.123151145, -0.0640959705], [-0.007883311015, 0.0275959425, 0.038498977499999996, 0.013833611415, -0.0423611215, -0.1081379955, -0.151561595, -0.15217369, -0.115738932, -0.064017033, -0.01920520585, 0.006080889534, 0.01069498845, -0.00032241237050000004, -0.02049990255, -0.0404173385, -0.047324158, -0.034735274999999996, -0.005005304207, 0.03403926, 0.068679619, 0.0853274085, 0.0801923175, 0.06336798199999999, 0.047315484000000005, 0.034373573, 0.022790348499999998, 0.015745615, 0.018574299000000002, 0.029496281, 0.0416417475, 0.055858491499999996, 0.0805922205, 0.112227054, 0.128163345, 0.107190552, 0.047886397, -0.029371721805, -0.0925980755, -0.11707857, -0.0986665925, -0.0536305275, -0.0037554357104999997, 0.038313965, 0.0675632605, 0.078567168, 0.0661735705, 0.034297655, -0.0049406893315, -0.0383746595, -0.05893155, -0.067051025, -0.064210523, -0.0514065935, -0.0312842885, -0.0086117816425, 0.00966251115, 0.0140748003, -0.004078188846, -0.045726485500000004, -0.098163344, -0.136533705, -0.14115977, -0.11115766049999999, -0.062761976, -0.0195151384, 0.0028994565638, 0.00787690515, 0.0130876057, 0.025480512, 0.030125456000000002, 0.01337664309, -0.0179039349, -0.047908083000000004, -0.067697197, -0.0739569225, -0.065526256, -0.044924261, -0.021539647500000002, -0.005394641425, 0.0021038803571, 0.008035254200000001, 0.017497396499999998, 0.026136688499999998, 0.0208688349, -0.013423534640000002, -0.076756258, -0.143876595, -0.178371795, -0.162346645, -0.11189454, -0.0591068705, -0.0244654645, -0.00779805395, 0.002328481192, 0.0145675092, 0.024568229499999997, 0.0203599615, -0.003160751157, -0.037952779, -0.0718898505, -0.09845995, -0.11421400999999999, -0.11289436, -0.0867762535, -0.03513849375, 0.0317529648065, 0.0960744245, 0.14247381, 0.164286775, 0.16186035499999998, 0.14068745, 0.11366741, 0.1001251395, 0.11638073500000001, 0.16446598, 0.22557178, 0.269741275, 0.279959885, 0.26814265, 0.26031618, 0.265295845, 0.270273875, 0.26130842, 0.23950365, 0.22108718, 0.22406482, 0.252462955, 0.28786638, 0.29298261]]","[[1.33449715, 1.1702151, 1.0854142, 1.1355873, 1.2115138, 1.1523877, 0.95189987, 0.81828008, 0.974116825, 1.3776217, 1.7311653, 1.78585355, 1.5459344, 1.18883365, 0.8882983849999999, 0.7316675600000001, 0.712997075, 0.740257085, 0.689668185, 0.504028935, 0.239549575, 0.00988348442, -0.1244555995, -0.21588538, -0.355168885, -0.53491573, -0.64733317, -0.63513007, -0.57163644, -0.566015475, -0.65008222, -0.777076085, -0.8792128250000001, -0.908853955, -0.8640116550000001, -0.8023518300000001, -0.804594535, -0.8925438749999999, -0.99188532, -0.9977020249999999, -0.88181941, -0.7317781750000001, -0.67480599, -0.7597453350000001, -0.91681585, -1.016021705, -0.9562634, -0.73227128, -0.447542205, -0.24261865, -0.191623715, -0.27073988, -0.39750176000000004, -0.485464785, -0.482498345, -0.387737905, -0.25039369, -0.149604165, -0.1585189, -0.294258045, -0.47503973, -0.54928106, -0.42639995999999997, -0.1886071505, -0.020121566684999998, -0.0353662966725, -0.196180785, -0.352879575, -0.33948476, -0.077245746377, 0.350652405, 0.7295010949999999, 0.85716955, 0.69877396, 0.42788905, 0.28627446, 0.36874606, 0.561972985, 0.6917037, 0.688791825, 0.606377755, 0.53057071, 0.5084018, 0.533545105, 0.564685165, 0.55574838, 0.48732712, 0.3851511, 0.309734795, 0.3100656, 0.372539565, 0.431879335, 0.45058984, 0.46499664, 0.52628985, 0.616574885, 0.65703453, 0.59457461, 0.45413022499999994, 0.305958385, 0.20067311499999999, 0.136268695, 0.077503619, 0.0029442851185000002, -0.068969943, -0.10552165799999999, -0.11426056000000001, -0.137761745, -0.177340875, -0.17922927000000002, -0.1116649535, -0.0128531025635, 0.0480286615, 0.0311960415226, -0.0497002184, -0.132986071, -0.136414755, -0.022830675930000002, 0.13107293750000001, 0.16410690500000003, -0.0231142566425, -0.3485044, -0.611781775, -0.6805688499999999, -0.5763781250000001, -0.392110895, -0.18016307399999998, 0.0638643698, 0.33529131, 0.535301965], [-0.152184647, -0.229030805, -0.2474598, -0.239635465, -0.24745191, -0.276796265, -0.28349867, -0.212431905, -0.055575217595000004, 0.126911304, 0.24096917999999998, 0.21804100999999998, 0.062955920315, -0.1420218485, -0.29046242, -0.32064864, -0.244839695, -0.1271929225, -0.0360031125, -0.0086567186, -0.0451744855, -0.11338609599999999, -0.16334833499999998, -0.159170985, -0.1069919095, -0.0508895395, -0.0347633465, -0.0662856825, -0.1274382455, -0.205335815, -0.28589423, -0.33214177, -0.300562435, -0.18723495499999998, -0.05046367627500001, 0.033581636150000004, 0.0439294765, 0.020860849, 0.00820771775, 0.0201962545, 0.0478298865, 0.06266619000000001, 0.02353835283, -0.0875969545, -0.226867175, -0.30710740999999997, -0.28283397, -0.2084066, -0.18226264, -0.238015365, -0.31488956, -0.330667055, -0.267259985, -0.178413185, -0.11517389100000001, -0.07239620549999999, -0.02621407135, 0.012107446238499998, 0.0110360699355, -0.025532806300000002, -0.040349744, 0.02053340348235, 0.133096575, 0.20162104500000003, 0.1485069655, -0.00694457369, -0.1566508065, -0.19585755500000002, -0.10717740199999999, 0.046841314035000005, 0.18594359000000002, 0.249893995, 0.20760248, 0.069445262715, -0.1034058045, -0.224412745, -0.23792719, -0.15796227, -0.048090887994499995, 0.03775706135, 0.08928171000000001, 0.12617609500000002, 0.17043647, 0.21711893, 0.21579585, 0.1056875977, -0.11440028078999999, -0.357613265, -0.502169515, -0.4788442, -0.31015923, -0.080985583305, 0.123616958, 0.26740996, 0.36045603, 0.41617446999999996, 0.42406425, 0.368222345, 0.26463037, 0.16619877, 0.11980174, 0.128335035, 0.16251556999999997, 0.190867995, 0.19759474000000002, 0.19868802500000002, 0.23563577500000002, 0.327992615, 0.43623078, 0.49022412000000004, 0.462986925, 0.41074629, 0.41883936, 0.505226095, 0.6011675000000001, 0.630955355, 0.5824600449999999, 0.489611395, 0.38860136500000003, 0.31443803, 0.30055399, 0.35626769, 0.456512965, 0.556483055, 0.612063005, 0.59627849, 0.50700837, 0.369918075, 0.23843741999999998, 0.165119025], [-0.132686544, -0.048401478500000004, 0.0032617056965, -0.034865785629393, -0.1752415825, -0.355089785, -0.465043565, -0.42626376, -0.250495035, -0.027601549175, 0.142581538, 0.20580558499999999, 0.16590169, 0.06843252749999999, -0.0269328430336, -0.074328623, -0.058959611, 0.004932252185, 0.0825201415, 0.12877958, 0.11091107150000001, 0.032906421373999996, -0.059382154, -0.1058230315, -0.07718595, 0.003746462695, 0.0875806095, 0.138990285, 0.15131057, 0.136242985, 0.112137935, 0.0963376025, 0.09670653700000001, 0.1140733, 0.153842345, 0.22364695, 0.31566392, 0.39535703499999997, 0.41680507, 0.35782482000000004, 0.24321300499999998, 0.133261806, 0.07845041550000001, 0.078708335, 0.0941073235, 0.0962519655, 0.094139799, 0.106820305, 0.12735760499999998, 0.1183937015, 0.04082143554, -0.102674459, -0.247341005, -0.301346125, -0.21309574, -0.01410194156, 0.1957761435, 0.30958691, 0.274421495, 0.11551127700000001, -0.082231629595, -0.22474448500000002, -0.26389459, -0.22147381500000002, -0.16213203499999998, -0.13762845, -0.154161425, -0.18758268, -0.216361975, -0.235148985, -0.24958819999999998, -0.26751314, -0.288604345, -0.29650375, -0.26937811, -0.202806255, -0.1176018515, -0.043615329, 0.0027971185630000003, 0.0256876485, 0.035754057, 0.038187425500000004, 0.0386633245, 0.0494571095, 0.0811598675, 0.1267821, 0.156409665, 0.13762025, 0.066014691, -0.027173238865, -0.098100012, -0.12032084, -0.09736839950000001, -0.05024358549999999, 0.0036977020185000003, 0.0595984905, 0.1181139115, 0.17243706499999997, 0.20209460499999998, 0.18177740499999998, 0.10392441599999999, -0.0048255437915, -0.0933423325, -0.119412185, -0.0777811425, 0.0020417912649999996, 0.079657035, 0.125654425, 0.12802686, 0.0874453585, 0.0172677417011, -0.054232485, -0.09429636350000001, -0.08576685899999999, -0.0367503587, 0.028367368171, 0.086194281, 0.12507863, 0.144172615, 0.14340414499999998, 0.11492657899999999, 0.049584434799999993, -0.041304449424999994, -0.11568174, -0.12550751500000001, -0.057628746050000006, 0.0561468550935, 0.170445235, 0.25869232, 0.31274478]]","[[0.38616292, 0.342484145, 0.27529066, 0.227610915, 0.200723485, 0.160808205, 0.094863271, 0.048951329, 0.1015675415, 0.28657152, 0.53322673, 0.702714415, 0.6989363199999999, 0.53869663, 0.331460675, 0.201112735, 0.20281262000000003, 0.2909629, 0.35827409000000005, 0.30748078, 0.1108051469, -0.16451190300000001, -0.38584758999999996, -0.441075885, -0.32128978, -0.11616253199999999, 0.078300764545, 0.217440015, 0.28327691, 0.26731808, 0.18158648, 0.054048131709999996, -0.081706535, -0.18777506500000002, -0.23229261999999998, -0.212709155, -0.16357223999999998, -0.13067639, -0.130065515, -0.13699223, -0.13056992, -0.136561725, -0.19829982499999999, -0.31247328, -0.424195035, -0.48229778, -0.471900855, -0.392067165, -0.23911473, -0.042891831395, 0.1105219525, 0.13804771999999998, 0.036015721625000004, -0.1176979735, -0.2218727, -0.209353235, -0.08025371917799999, 0.09300747385, 0.20864419, 0.21668097499999997, 0.158068505, 0.11676648, 0.145471725, 0.22986110499999998, 0.30292183, 0.28951501, 0.151856934, -0.07500459911, -0.28305855999999996, -0.358338275, -0.27167366000000004, -0.104802105, 0.010444120745, -0.005710829109999999, -0.11906662300000001, -0.21484826999999998, -0.20516088, -0.1047592465, 0.0062582013, 0.068306269, 0.0674506585, 0.00667752234, -0.1035862085, -0.23009799, -0.32577271500000005, -0.365851575, -0.36526744499999997, -0.35295823, -0.33338904999999996, -0.2847089, -0.19985645000000002, -0.1091223685, -0.03950271925, 0.03141852757, 0.148262261, 0.307571085, 0.44300668000000004, 0.48870783500000003, 0.439821, 0.34676195, 0.26576267000000003, 0.22341529000000002, 0.225373205, 0.28228325, 0.39497636, 0.51029804, 0.535510975, 0.42694944999999995, 0.24730385, 0.1135848085, 0.0962911945, 0.174311065, 0.272992205, 0.32631324999999994, 0.310296805, 0.24775203, 0.193591325, 0.19382019499999997, 0.24058759500000002, 0.271588435, 0.21975884, 0.0706936456695, -0.113566388, -0.240890535, -0.27351564, -0.244813565, -0.195203765, -0.127550219, -0.03414712291, 0.0606047355], [-0.17008320000000002, -0.22902081, -0.18918795500000002, -0.0695228073, 0.0387929206725, 0.07361538849999999, 0.0639371675, 0.075728595, 0.12569759449999998, 0.160999475, 0.11512683000000001, -0.02303519857, -0.19317213500000002, -0.30834883, -0.31688769499999997, -0.234128005, -0.1292018225, -0.074867678, -0.09543681550000001, -0.16231083999999998, -0.22799315499999998, -0.255683855, -0.23848882, -0.19911559, -0.16235762, -0.135358845, -0.11514513000000001, -0.09977293749999999, -0.09960741499999999, -0.13931042, -0.22503764, -0.30889421, -0.312606475, -0.20568773499999998, -0.055448884618500005, 0.02878608325, 0.008557794137, -0.056202170999999995, -0.0817409585, -0.030652268793, 0.0705235295, 0.152091, 0.145980925, 0.0335076506, -0.1244048305, -0.212689075, -0.1573064175, -0.0017599031700000001, 0.13289436, 0.161844885, 0.09696971550000001, 0.0109316791396, -0.038122965, -0.0433739075, -0.015184614800000001, 0.053919848000000006, 0.15780891500000002, 0.24052855999999997, 0.23488491, 0.1412178675, 0.044298742, 0.0276123845, 0.0775845335, 0.099938494, 0.026871726925, -0.1080533085, -0.20031537, -0.176964785, -0.06020365503, 0.07142079309999999, 0.157347085, 0.173259465, 0.1068149175, -0.03814577396, -0.20554646999999998, -0.297246725, -0.25797479, -0.1337777825, -0.016945662673, 0.056429799999999995, 0.12218994, 0.20399962, 0.258537325, 0.23265454500000002, 0.1399353555, 0.0301423352925, -0.0805190755, -0.1951654, -0.28761647, -0.312268695, -0.253111615, -0.14561823499999998, -0.04581205025, 0.01612818184, 0.046403726, 0.0614327635, 0.062409400999999996, 0.0383633025, -0.005392892728, -0.0314347695, -0.0058987402915, 0.05298910700000001, 0.08271390549999999, 0.036001403681, -0.066207608, -0.136541245, -0.08666535, 0.0899095087, 0.294637265, 0.39792864, 0.354028955, 0.239106895, 0.16217932000000002, 0.159715105, 0.19248917, 0.21334273499999998, 0.21120454500000002, 0.20133084, 0.201556925, 0.22046037999999998, 0.2508879, 0.27668695, 0.291644605, 0.30856965, 0.339913515, 0.36032948, 0.310317975, 0.16599548949999998, 0.00695764346, -0.00650500404345], [-0.34956229499999997, -0.16011629500000002, -0.0122174484275, 0.012805880072, -0.0928885385, -0.251892905, -0.3480797, -0.306222555, -0.1501135935, 0.01682913716, 0.09711429049999999, 0.0768908255, 0.0307123025, 0.0435367515, 0.12215769500000001, 0.189281845, 0.16529494499999997, 0.052659842699999994, -0.061659768999999996, -0.085399402, -0.0019695650400000002, 0.12529086250000002, 0.216534735, 0.228193505, 0.16638805999999998, 0.0811729345, 0.040438136, 0.079136344, 0.164380555, 0.2237404, 0.21568857000000002, 0.166120615, 0.137238105, 0.170836835, 0.257265815, 0.34298745500000005, 0.36538217, 0.294819055, 0.16326475299999998, 0.0533450685, 0.0399132365, 0.1254893105, 0.228753135, 0.245956075, 0.139172624, -0.025786340725999998, -0.1341283575, -0.1226193205, -0.02785529846, 0.053499147000000004, 0.0411122289555, -0.0729025557, -0.215339315, -0.28249162, -0.21969453000000003, -0.064234397055, 0.0853788595, 0.14423591, 0.091878408, -0.0294736144715, -0.1523345185, -0.22943299499999997, -0.258008005, -0.267261525, -0.282898725, -0.30110537, -0.297201295, -0.261263565, -0.217388175, -0.20167796500000001, -0.226458395, -0.26999683999999996, -0.29578755, -0.27626213499999996, -0.20625876999999998, -0.1070923805, -0.0172933467485, 0.031588179, 0.03584222, 0.020734079, 0.021766825500000003, 0.0575699875, 0.116850575, 0.173621765, 0.21117598999999998, 0.225815, 0.21406592, 0.170271365, 0.09698000600000001, 0.010336597845, -0.0637073015, -0.0990443895, -0.0840215695, -0.030205293445, 0.0377593166, 0.09973034800000001, 0.143966275, 0.16246386000000002, 0.1529528, 0.12422257, 0.09114168149999999, 0.062273055499999994, 0.0390039565, 0.023712695, 0.023897026499999998, 0.049821725, 0.1029786165, 0.161264495, 0.188808885, 0.17082714, 0.12770730500000002, 0.0934507255, 0.08837997, 0.10683353999999999, 0.12737947, 0.133340865, 0.120473355, 0.0925959665, 0.0590520375, 0.0307448525, 0.01273971595, -0.00112902420275, -0.02191202805, -0.0508820295, -0.0707560715, -0.054506243, 0.010401380755, 0.107847156, 0.20244996, 0.255303765]]","[[1.1367405, 1.03665914, 0.97626609, 1.0252614549999999, 1.11487115, 1.11146905, 1.0012171650000001, 0.962151785, 1.18465885, 1.6077266000000001, 1.93727795, 1.9398180999999999, 1.631326, 1.2054139499999998, 0.8663081250000001, 0.728045145, 0.780622195, 0.8897560849999999, 0.8733316999999999, 0.64136231, 0.267773241, -0.076330666605, -0.26863326, -0.3349709, -0.393570105, -0.493875875, -0.56839798, -0.5579667150000001, -0.497544935, -0.45889369, -0.47605207499999996, -0.54559935, -0.6477494149999999, -0.7481489050000001, -0.8158529350000001, -0.8605373000000001, -0.922583685, -1.0046558349999999, -1.0400573, -0.96173013, -0.792475395, -0.649766015, -0.65080984, -0.8064556399999999, -1.0080899049999998, -1.1100915, -1.0224345099999999, -0.7613971100000001, -0.444533475, -0.211701295, -0.134713305, -0.20207286, -0.34766832999999997, -0.48371869500000003, -0.536992085, -0.47932605, -0.34008253000000005, -0.200151915, -0.162040595, -0.2767493, -0.47047756, -0.568129155, -0.44606537, -0.17339632049999998, 0.050120264695, 0.0834342225, -0.04900488462, -0.192652045, -0.16913003499999998, 0.106825747115, 0.54223807, 0.8999370050000001, 0.95991469, 0.6900602499999999, 0.29685631, 0.071366585, 0.1403625145, 0.387752185, 0.611020895, 0.700598155, 0.66679946, 0.56870451, 0.46035378, 0.375863025, 0.32461605499999996, 0.29097169, 0.250482975, 0.19679079000000002, 0.15471477, 0.156439945, 0.19709202999999997, 0.232882125, 0.24075190500000002, 0.260172, 0.34279958, 0.46403054, 0.5254728750000001, 0.457380925, 0.287816775, 0.105127471, -0.02343360019, -0.091101132, -0.12340092500000001, -0.128885825, -0.0912868225, -0.009422450039, 0.0624142665, 0.057905107000000004, -0.000843027365, -0.016295411185, 0.06206941755, 0.17958198, 0.24231819500000001, 0.20361669, 0.090921069, -0.008611191255000001, 0.013597440345, 0.20348887699999998, 0.45760614, 0.5626225850000001, 0.38014180000000003, -0.0068087331, -0.36264272, -0.50247889, -0.39889642999999997, -0.13486939292, 0.189240368, 0.507893835, 0.783374455, 0.930169605], [0.146082695, 0.051582441945, -0.10071486099999999, -0.259114685, -0.32935559500000006, -0.271643085, -0.1386029995, -0.004251534568, 0.0955351775, 0.164197915, 0.20904488000000002, 0.20222526500000002, 0.108084694, -0.050208762499, -0.19728344499999997, -0.26747196500000003, -0.235414015, -0.1360118745, -0.043684957999999996, 0.0040508676165, 0.0188206835, 0.021941879499999997, 0.0298238945, 0.048494621, 0.0667778415, 0.0600436355, 0.017037695153050002, -0.0478148325, -0.11945651549999999, -0.19188407500000002, -0.251519535, -0.28423134, -0.289170255, -0.26850653, -0.213235095, -0.1210406185, -0.009508298417, 0.079441209, 0.08863730650000001, 0.019772830025, -0.039649704, -0.04112471, -0.0451688015, -0.1265665575, -0.25888186, -0.343315955, -0.33836526, -0.297703895, -0.276648255, -0.27778974, -0.291056215, -0.310134825, -0.310657385, -0.26963042000000004, -0.19763909500000001, -0.1183393085, -0.042052558, 0.023427906525500003, 0.065620155, 0.08551302749999999, 0.096184034, 0.10361221000000001, 0.115659775, 0.142608865, 0.143194575, 0.045734972765000007, -0.1321071085, -0.266646935, -0.25810231, -0.11106276100000001, 0.08980379472, 0.239311155, 0.267956665, 0.1715188685, 0.0021213077, -0.152609471, -0.20466313500000002, -0.1347059665, -0.01238837861275, 0.0856036285, 0.13828379999999998, 0.16000039000000002, 0.17300101999999998, 0.19257826, 0.17417898, 0.043312151954999996, -0.1883282655, -0.39349454500000003, -0.45522876, -0.37764832, -0.23467968, -0.0778984365, 0.0777662024, 0.214637615, 0.29599247500000003, 0.30765554500000003, 0.285452325, 0.275293445, 0.2876307, 0.2954332, 0.26687383, 0.204429765, 0.14185877, 0.11315882999999999, 0.1438645, 0.22864342, 0.309385385, 0.32975085, 0.29823679999999997, 0.260689945, 0.236900645, 0.223023365, 0.223698275, 0.26225992000000004, 0.351657915, 0.452437555, 0.502553915, 0.46775409, 0.36387712, 0.257137155, 0.22324370500000001, 0.289805125, 0.40912743, 0.51313708, 0.568148945, 0.566661705, 0.5030273900000001, 0.384880745, 0.26054458, 0.18568843499999999], [-0.170944577, 0.036227596345, 0.23244986, 0.26135923, 0.04150835541, -0.34471353, -0.6839801, -0.77088556, -0.55022279, -0.148221429184, 0.23393694, 0.454943695, 0.480251115, 0.35248978000000003, 0.1544226605, -0.0206903743076695, -0.10625099, -0.082935898, 0.02273665684, 0.1438522685, 0.19836095499999998, 0.142495116, 0.009723190525, -0.11906023449999999, -0.18653155999999999, -0.19630361000000002, -0.18681182, -0.183269015, -0.185632975, -0.18368584500000001, -0.16283411999999997, -0.0996087625, 0.027961399294999998, 0.218268925, 0.437782805, 0.62225769, 0.69291361, 0.5989897049999999, 0.36573500000000003, 0.101236588305, -0.06723849665000001, -0.077702461, 0.03353917564, 0.16562015, 0.22615970000000002, 0.18533308, 0.077055668, -0.0348089528595, -0.09700123899999999, -0.102274648, -0.0914516435, -0.10352315649999999, -0.12120131499999999, -0.0778526345, 0.07561957443799999, 0.306695155, 0.5012287049999999, 0.5342255, 0.351508445, 0.00802035605, -0.35528936, -0.582759045, -0.59065447, -0.42140394000000003, -0.21360475999999998, -0.0964945615, -0.106330019, -0.19884312999999998, -0.31087903, -0.39596226, -0.43389195999999997, -0.43163784499999996, -0.404482735, -0.348487725, -0.24357828999999998, -0.0907341583, 0.065625174839, 0.15901442, 0.143405073, 0.02813232163, -0.11723556049999999, -0.20676167, -0.19148674499999999, -0.07189896349, 0.11728182300000001, 0.319167545, 0.4530184, 0.433301305, 0.2298979275, -0.080116627435, -0.34031227999999997, -0.42080162, -0.30437257, -0.07396834739, 0.16780835100000002, 0.35634249500000004, 0.46981948, 0.510280065, 0.48033268999999995, 0.36724458, 0.153247509, -0.13395596808500002, -0.38532275, -0.47084373, -0.35009406, -0.104040251155, 0.13935136, 0.29437536000000003, 0.34192874, 0.30261807, 0.20993457, 0.10334722299999999, 0.026302379849999998, 0.010461412350000001, 0.060106849000000004, 0.15091656, 0.24137029999999998, 0.29302154999999996, 0.29010406, 0.244527985, 0.18391121, 0.126719189, 0.06325660100000001, -0.0265894629785, -0.133507897, -0.211465235, -0.21610188, -0.136201114, 0.0143642618, 0.21088400499999999]]","[[0.57061441, 0.528178395, 0.473824535, 0.45770177500000003, 0.46888225499999997, 0.45317984, 0.40236862500000004, 0.400894385, 0.551457605, 0.840959245, 1.108555995, 1.1778742, 1.008945075, 0.71469854, 0.46393611999999995, 0.3780036, 0.46902247, 0.632962025, 0.7137733249999999, 0.610360895, 0.346543275, 0.048785589639999995, -0.1509516225, -0.209072055, -0.17736187999999997, -0.125342185, -0.08070307850000001, -0.048704172500000004, -0.0431974375, -0.0688284495, -0.103853077, -0.12836188, -0.146493565, -0.16928469, -0.20093858999999997, -0.2509729, -0.32931678499999995, -0.4148156, -0.45202535, -0.39734395499999997, -0.271057115, -0.162702715, -0.16902008500000001, -0.312638545, -0.523738495, -0.6940518299999999, -0.73624673, -0.612399305, -0.35429948000000006, -0.0724515689475, 0.0923828365, 0.0599918373515, -0.133997574, -0.36932834999999997, -0.51959817, -0.511219795, -0.34902983, -0.12312543599999999, 0.0237347369235, -0.011017681145, -0.19935903249999998, -0.39251986, -0.44053615999999995, -0.316635455, -0.12162751399999999, 0.01691029025, 0.03526797555, -0.047206081805, -0.16014040999999998, -0.22135554, -0.17342711000000002, -0.028752793685000003, 0.11842281099999999, 0.157923185, 0.063312049048, -0.07759559249999999, -0.14837984, -0.107706566, 0.007036410444999999, 0.1440858605, 0.265862375, 0.336143055, 0.32551366000000004, 0.239849125, 0.126346147, 0.042449489, 0.018049324, 0.0455870635, 0.1007569385, 0.163669015, 0.21711983, 0.24350307000000002, 0.24706484499999998, 0.27027699, 0.35634135, 0.488055005, 0.58477426, 0.5744752, 0.461607755, 0.320971465, 0.23184986, 0.215773625, 0.232292625, 0.235876925, 0.22683868000000001, 0.22800361, 0.22556068499999998, 0.18406119499999998, 0.1139670405, 0.0726970925, 0.0976222095, 0.167254295, 0.229717445, 0.24498071500000002, 0.202391465, 0.134089305, 0.11182086, 0.18927205, 0.328345565, 0.401451365, 0.29486075, 0.019070327983769998, -0.29312791, -0.49806556999999996, -0.533037865, -0.40874792499999996, -0.16020668964999998, 0.16024163391500001, 0.46692885500000003, 0.6476181200000001], [0.184969525, 0.10516153600000001, 0.008448932555, -0.038903402499999996, -0.00448035342, 0.0846593785, 0.177060425, 0.23710365500000002, 0.2471104, 0.20088902, 0.107265432, -0.011616298443, -0.121672265, -0.187054455, -0.19503779000000002, -0.162435545, -0.1175573805, -0.0845420625, -0.072805233, -0.07535624099999999, -0.0826217605, -0.0871541575, -0.08121925049999999, -0.067926138, -0.062563068, -0.0746284585, -0.0948958865, -0.105949135, -0.10961341499999999, -0.129491075, -0.1795328, -0.23979209, -0.260797685, -0.199278945, -0.0690717989545, 0.056906098849999996, 0.109718314, 0.0776244835, 0.007725655044999999, -0.031311603, -0.004804546825, 0.0563922385, 0.08370947299999999, 0.027797617915, -0.1044395425, -0.247606485, -0.32440808, -0.30930626499999997, -0.23290476, -0.1369689765, -0.051686907, -0.000262164692, -0.0038110282415000003, -0.06812001150000001, -0.153151245, -0.18302512499999998, -0.1171119565, 0.004422284645, 0.099695608, 0.116739135, 0.072852362, 0.0284778545, 0.018769222999999998, 0.0246371, 0.004194879347, -0.059696853, -0.137581445, -0.18217819999999998, -0.172396425, -0.1166306525, -0.03588997888, 0.0411224259, 0.079709943, 0.0476392646, -0.06146903462, -0.195481035, -0.26185368, -0.20950517000000002, -0.07154522820850001, 0.0842812694, 0.21203548000000003, 0.2882199, 0.297317745, 0.236523395, 0.1236762775, -0.014591366914999999, -0.15466834399999999, -0.26408746, -0.30445444, -0.25499477, -0.130081998, 0.013766071829999999, 0.11216518049999999, 0.150362095, 0.164049045, 0.18768439, 0.22265790500000002, 0.24573538, 0.237114775, 0.20371493999999998, 0.17092954500000002, 0.15256218, 0.141325625, 0.11811623300000001, 0.0762718135, 0.049095313999999994, 0.0835323715, 0.17989466, 0.28047574999999997, 0.31716327, 0.270859385, 0.191737525, 0.151507795, 0.17694416000000002, 0.240867385, 0.295897185, 0.30696718, 0.265482945, 0.19060744, 0.125071925, 0.10958386, 0.15490079, 0.24414392, 0.34870901000000004, 0.432902625, 0.460572955, 0.407684565, 0.279109985, 0.1231269545, 0.01284565861765], [-0.18420335349999997, 0.11724611169499999, 0.36358165, 0.435896605, 0.27944116, -0.034330514085, -0.32837831, -0.42911669500000005, -0.284316625, 0.00865504953, 0.286927205, 0.438325965, 0.45278008999999997, 0.382069915, 0.272170475, 0.14570946299999998, 0.030054450125, -0.028140969000000002, 0.00372675634, 0.10202001349999999, 0.196146735, 0.22319263, 0.17061354, 0.06767638, -0.04607046584, -0.132682434, -0.16159036499999999, -0.13116621, -0.0817428025, -0.06315073, -0.08134823499999999, -0.0905622215, -0.040273743199999996, 0.08383026600000001, 0.253304215, 0.3980128, 0.42108957500000005, 0.26013096999999996, -0.035806758545, -0.30589913, -0.388326725, -0.2497578, -0.01262629786, 0.147796203, 0.140474614, 0.0055438530725, -0.1506979365, -0.245799375, -0.25251132, -0.183351225, -0.0785074265, 0.0085910932205, 0.049678268, 0.070595804, 0.124658266, 0.228200965, 0.32535229, 0.32361520499999996, 0.171543354, -0.08597443394500001, -0.324535065, -0.429379925, -0.37992604, -0.25086683, -0.13994578000000002, -0.095194921, -0.10333891149999999, -0.13487512000000001, -0.18326595999999998, -0.251679555, -0.319584755, -0.345896635, -0.29977653, -0.17683611249999998, 0.0024323727299999996, 0.19368419, 0.33239721000000005, 0.357551265, 0.25107594, 0.060991521310000005, -0.1161381285, -0.18990749999999998, -0.131674394, 0.016692400147499998, 0.18628463499999998, 0.32686740999999997, 0.407802265, 0.39425019499999997, 0.25650061, 0.018953933885, -0.21799174000000002, -0.33663039499999997, -0.290949025, -0.129312877, 0.06031913312500001, 0.21013626500000002, 0.29153082, 0.307222455, 0.2763925, 0.21189537000000003, 0.10574470500000001, -0.0493761722345, -0.218068525, -0.323841445, -0.31032217500000003, -0.187711945, -0.013487304507499999, 0.1548111445, 0.27755456, 0.32542693, 0.28282165, 0.1646357775, 0.0224606311905, -0.0786156445, -0.0964907525, -0.031856610985, 0.0741094655, 0.158333735, 0.17188596, 0.11190290750000001, 0.021630229945, -0.045318024, -0.07143973199999999, -0.0875659995, -0.13056798, -0.190264135, -0.21091288, -0.1439361635, 0.011864111049999999, 0.21561935]]","[[0.9087819450000001, 0.868734295, 0.86033135, 0.9249047950000001, 0.997512235, 0.96034294, 0.795978875, 0.66626412, 0.776800765, 1.130970835, 1.48945705, 1.60583655, 1.43089185, 1.089050455, 0.74667978, 0.532241, 0.5024083699999999, 0.6028946, 0.678488565, 0.5813134, 0.28904809, -0.080607730355, -0.37031092, -0.50249092, -0.503119725, -0.43182981, -0.3356531, -0.27037531000000004, -0.297454815, -0.42189991499999996, -0.57285402, -0.671963015, -0.691917795, -0.647106205, -0.5725192849999999, -0.525768235, -0.56255391, -0.676562265, -0.783454345, -0.78936048, -0.68062599, -0.54488424, -0.498691005, -0.589402325, -0.7651595849999999, -0.921563435, -0.9608733700000001, -0.83085888, -0.557390215, -0.25707626, -0.08224229250000001, -0.11629659399999999, -0.31297421, -0.5373594899999999, -0.6573345, -0.6061263499999999, -0.40033574, -0.1342260285, 0.056612046555, 0.075936926, -0.0549732355595, -0.203556365, -0.231056405, -0.101478446665, 0.1122302988, 0.293900935, 0.34481333, 0.237280775, 0.058659773490000004, -0.023774119928999998, 0.09769564715, 0.35579937, 0.5479081699999999, 0.505797505, 0.2507271595, -0.02721150191, -0.15667892, -0.11619995250000001, 0.019610123735, 0.187504225, 0.353331415, 0.47707080500000004, 0.5165054, 0.46586836, 0.36693293, 0.27662162, 0.232476115, 0.247021935, 0.318517175, 0.43082021, 0.54066577, 0.5911470400000001, 0.5679660599999999, 0.528741805, 0.54349653, 0.608251555, 0.64014015, 0.5623286000000001, 0.38023933, 0.1744788735, 0.0318507704865, -0.0166323799, -0.0006891953315000001, 0.0341662645, 0.065298073, 0.085878341, 0.07566708, 0.0153680552305, -0.062177610999999994, -0.083624932, -0.0157559828885, 0.0908537825, 0.147469, 0.1033603175, -0.019020910664999998, -0.134423503, -0.139069008, 0.007463261335, 0.215792965, 0.30812918, 0.16676868150000002, -0.15103747416, -0.46231666, -0.6142059400000001, -0.57503945, -0.402262575, -0.166973035, 0.08328249083, 0.30756621500000003, 0.43721931499999994], [0.17729406, 0.304518295, 0.339556435, 0.269676805, 0.15761179, 0.0638224665, -0.0014088399045, -0.0460894905, -0.056122097499999996, -0.011800110275, 0.0651807705, 0.114771343, 0.096212021, 0.02456981892, -0.0556598815, -0.108870877, -0.127774475, -0.131446385, -0.13194995499999998, -0.11868675, -0.08342950249999999, -0.038962568499999996, -0.014344462499999999, -0.02753311, -0.0603969515, -0.0830979355, -0.0884007955, -0.08584956699999999, -0.079881432, -0.0639269415, -0.0502675665, -0.071177255, -0.12053480300000001, -0.132827055, -0.056848075580000004, 0.07418271145000001, 0.17111915, 0.177704515, 0.1250435465, 0.091825766, 0.107495645, 0.13644572, 0.145026935, 0.11726015699999999, 0.046857314399999996, -0.039894204329999995, -0.1015483725, -0.12821576, -0.132388295, -0.119235525, -0.0951380215, -0.07267955599999999, -0.059813074, -0.07204138, -0.122705232, -0.184945755, -0.21470324999999998, -0.202440745, -0.16815433999999999, -0.13236974, -0.0977541365, -0.054124434, -0.0011217722945, 0.044598702000000004, 0.060952017500000004, 0.037712991, -0.016676255766, -0.0813020545, -0.142581065, -0.189930345, -0.20395586500000001, -0.16550134, -0.078089942, 0.00683603473, 0.011721802825, -0.0821085525, -0.20315654, -0.269029385, -0.24654191, -0.143054147, 0.00024875247099999983, 0.12380961900000001, 0.19099306, 0.214088395, 0.22205869499999997, 0.21355158500000002, 0.15473462, 0.03419829072, -0.09851884350000001, -0.17491452500000002, -0.16324330499999998, -0.083996758, 0.0164903556415, 0.1042094825, 0.172344275, 0.230943635, 0.284054045, 0.31783629999999996, 0.30605452, 0.23412296999999999, 0.128583362, 0.0395916645, -0.0018114900395, 0.008541622784, 0.0584936755, 0.122352919, 0.17793013, 0.22781282, 0.26901762, 0.262231645, 0.18875751999999998, 0.104217672, 0.072716608, 0.089436752, 0.11669040000000001, 0.14652172500000002, 0.19555648, 0.251291675, 0.259022825, 0.18257553, 0.048687264975, -0.066723685, -0.10206380400000001, -0.0632776075, 0.0096705647405, 0.096836607, 0.18486074500000002, 0.232271425, 0.19092109499999999, 0.06534952118], [0.092655908065, 0.32904265000000005, 0.56654389, 0.7214744799999999, 0.68723331, 0.42612690999999997, 0.03975849049, -0.27413332, -0.35363799, -0.178977787, 0.13014531031, 0.40639271, 0.53168579, 0.47475934000000003, 0.27319117, 0.008508748844999999, -0.211552975, -0.287354175, -0.1863386345, 0.022460592052, 0.21456384, 0.299627875, 0.267089595, 0.1556505785, 0.0031461033875, -0.1603853535, -0.292410615, -0.344156465, -0.3026582, -0.207952065, -0.113589129, -0.04055047215, 0.028572991355, 0.127570459, 0.275637105, 0.43451699, 0.49826927499999996, 0.36699022, 0.05700330632, -0.27515298, -0.44288568, -0.367690115, -0.11943622212499999, 0.15523948499999998, 0.33296648500000003, 0.36067632000000005, 0.25036869, 0.059678063085000004, -0.1274680295, -0.23156074499999998, -0.218997495, -0.1224730765, -0.0142886916945, 0.054016659, 0.0895496255, 0.133765985, 0.200174875, 0.23326438, 0.1378503935, -0.124776100305, -0.45667394, -0.669847355, -0.63988792, -0.41163798, -0.1511009545, -0.0021558006439, 0.00068670159, -0.0943721945, -0.224314935, -0.339515515, -0.39766828, -0.37088904999999994, -0.26336278, -0.107898636, 0.062213251385, 0.231779725, 0.38986587, 0.502343925, 0.511274795, 0.373317475, 0.11109052848499999, -0.17084053300000002, -0.33389818, -0.28831355, -0.052465676610000005, 0.256410395, 0.489637495, 0.540860455, 0.390125835, 0.10826249286999999, -0.1773359465, -0.34793925000000003, -0.35703029000000003, -0.24360974999999999, -0.08174775798200001, 0.08214626409999999, 0.24304016, 0.40127011500000004, 0.526200675, 0.5561354000000001, 0.434677305, 0.16171117438, -0.17716710735, -0.43797024, -0.504359915, -0.36458602, -0.110343621795, 0.13537122999999998, 0.290774425, 0.33680235000000003, 0.29426602, 0.19109683, 0.05176864388, -0.09251189800000001, -0.19694461, -0.221778945, -0.165969155, -0.0715227015, 0.0147806986405, 0.075869872, 0.117198305, 0.13751395, 0.113810144, 0.019077236568, -0.140759448, -0.30947832999999997, -0.41406617500000004, -0.41559436499999997, -0.31575018499999996, -0.12242229471]]","[[0.8872387700000001, 0.5985331349999999, 0.469066205, 0.5695909100000001, 0.69763727, 0.65236119, 0.45187146, 0.295009765, 0.33254579, 0.468185475, 0.49067600499999997, 0.34078840499999996, 0.1352163695, -0.0039717723500000005, -0.0545238435, -0.054207698000000006, -0.02814187795, 0.014762232219, 0.037315746999999996, -0.007695674415, -0.104221231, -0.181851315, -0.221923875, -0.309787215, -0.51442887, -0.738433345, -0.81427606, -0.7307027700000001, -0.62427453, -0.57931038, -0.553732645, -0.48857169, -0.40502156, -0.36891925999999997, -0.40843567999999997, -0.5018634949999999, -0.606122015, -0.6607524050000001, -0.61489995, -0.47816702, -0.31767411, -0.217297475, -0.23892394, -0.37546407000000004, -0.505253865, -0.419494625, 0.0019393381000000012, 0.578941545, 0.9257467250000001, 0.8812198549999999, 0.64844586, 0.46634422999999997, 0.38335005, 0.340578365, 0.29949695, 0.258907105, 0.23683098000000002, 0.242288535, 0.20198473, -0.02044019957, -0.421046835, -0.74882165, -0.7684569299999999, -0.544252615, -0.302942175, -0.17715144500000002, -0.17753729, -0.260778395, -0.301547755, -0.105116310735, 0.35890030500000003, 0.80460037, 0.81520239, 0.24775639675, -0.500688985, -0.84047235, -0.6307623499999999, -0.2018640493, 0.12801367551, 0.295718555, 0.37724441, 0.42095057500000005, 0.417606285, 0.36034317, 0.276205775, 0.199898295, 0.14496724500000002, 0.11517303999999999, 0.12819777, 0.19616050000000002, 0.27982844, 0.30102127500000003, 0.23009836, 0.13717261, 0.12137608999999999, 0.20173428000000002, 0.3042889, 0.342167465, 0.28580989500000004, 0.16827784999999998, 0.047005618560000004, -0.0397837641, -0.0875696015, -0.0998635805, -0.061312326, 0.040447743865, 0.16492927500000001, 0.224703015, 0.17182381, 0.062401596499999996, 0.014429884799999999, 0.097125224, 0.26736616, 0.407187005, 0.430215615, 0.36667288, 0.34218191500000006, 0.435261825, 0.521976945, 0.334835945, -0.21200956611, -0.80614194, -1.0239933, -0.7744987999999999, -0.2978959935, 0.120440259245, 0.308178415, 0.2712124, 0.17962426, 0.110903267], [-0.0175874865, -0.0274338835, -0.060730599999999996, -0.0988599135, -0.11292571000000001, -0.086027171, -0.0282464388945, 0.03316274265, 0.0741978705, 0.08493141, 0.0699290145, 0.0394112475, -0.002506992547, -0.054888673, -0.106856887, -0.13810232, -0.13455943, -0.09911045400000001, -0.0437341275, 0.0173867891585, 0.06146747, 0.063699746, 0.0219233603604, -0.031517519, -0.0511082665, -0.017832230952949998, 0.042207051, 0.08265916949999999, 0.0763008935, 0.028058280855, -0.03861528435, -0.094923778, -0.11075077800000001, -0.06563770149999999, 0.027639772009999997, 0.1187612665, 0.15530293, 0.12529556050000001, 0.0641598625, 0.024819215, 0.0379618415, 0.09018992199999999, 0.133512455, 0.120244505, 0.040478628424999996, -0.066520761, -0.141486115, -0.151550285, -0.1112954705, -0.062922957, -0.0396604245, -0.045954815499999996, -0.06805312050000001, -0.09457006350000001, -0.11598103, -0.114026765, -0.075828771, -0.0187404924801, 0.015539811, -0.0014461504050000001, -0.0553386845, -0.1002659435, -0.10030261400000001, -0.059368221500000005, -0.016515951900000003, -0.015037247, -0.065001268, -0.132695815, -0.16879285500000002, -0.14271201, -0.05939211365, 0.041984073875499996, 0.10668820200000001, 0.09442763, 0.0032991285800000004, -0.12446855, -0.21946841500000003, -0.225849525, -0.140041304, -0.00884463516, 0.107105595, 0.17223681, 0.19468419, 0.197732465, 0.176343075, 0.1127188765, 0.0193285655075, -0.0638703645, -0.10845734350000001, -0.11436692000000001, -0.0923119605, -0.05089447, 1.4085561000000065e-05, 0.0509847405, 0.10054979700000001, 0.15125489, 0.193634235, 0.20096312000000002, 0.153004335, 0.06507974899999999, -0.0166724701645, -0.049215182, -0.019539277495, 0.0489607495, 0.1107058265, 0.13244213, 0.11912489000000001, 0.0980417585, 0.08641201150000001, 0.08260482350000001, 0.0791944245, 0.0773211235, 0.085622381, 0.1089533925, 0.14262982, 0.174097665, 0.18429409, 0.153985785, 0.081264748, -0.0038191092955, -0.054495756, -0.044234159999999995, 0.0169496200985, 0.09853343, 0.166975665, 0.19483958, 0.168986125, 0.095782173, 0.004525484602, -0.0603621745], [-0.0002230561950000001, 0.06758304650000001, 0.11539313050000001, 0.13009459, 0.10537824300000001, 0.0481922505, -0.0195789659285, -0.07158706050000001, -0.088256464, -0.0679296105, -0.0303837725, 0.0030073572347999998, 0.025420974, 0.035928852500000004, 0.0244625979, -0.016014158937500002, -0.06594618299999999, -0.0894133605, -0.066900758, -0.01227119045, 0.0429961985, 0.07633701450000001, 0.0809752525, 0.059813567, 0.0198744058305, -0.0264780546, -0.061294888, -0.070887943, -0.0561912705, -0.028198255, 0.0045349653054, 0.039359016499999996, 0.075504021, 0.10821511299999999, 0.12882690500000002, 0.125750155, 0.088238223, 0.020599421185, -0.0513330515, -0.095241814, -0.094772266, -0.059679528499999995, -0.0128375518265, 0.028171085699999997, 0.055571960999999996, 0.0652163235, 0.053569404, 0.020154810837000003, -0.0288742381, -0.076937908, -0.104990326, -0.106716435, -0.09153343250000001, -0.071946647, -0.050273902499999995, -0.02133954275, 0.013021672634500001, 0.034725492, 0.020889258486, -0.0351237485, -0.10991203199999999, -0.16105918, -0.16019212, -0.111496079, -0.043853034500000006, 0.010552996795, 0.0351224245, 0.036177709, 0.035977123, 0.0489185905, 0.0669428265, 0.0716384605, 0.056019262, 0.0293430495, 0.004763685141, -0.009939630999999999, -0.012149541600000001, -0.0035255377674, 0.0104761233, 0.024468646, 0.0373251395, 0.052551100499999996, 0.0701574975, 0.081098432, 0.07289905349999999, 0.0403438065, -0.008332376322, -0.0579232695, -0.09580688300000001, -0.11466396, -0.113504695, -0.09857928749999999, -0.08017524050000001, -0.06467658100000001, -0.0506345215, -0.0306209385, -0.0008244792185000001, 0.030318809999999998, 0.0437549935, 0.02187183192, -0.03670697855, -0.1102131275, -0.16499651499999998, -0.17667594, -0.14440129000000002, -0.085258557, -0.0180420730575, 0.0467488335, 0.10398556299999999, 0.14309771500000001, 0.148315435, 0.1142652725, 0.058691589, 0.013510213799999999, 0.00144746357185, 0.024048383399999998, 0.067350692, 0.114771638, 0.155384425, 0.185489715, 0.206382795, 0.218773355, 0.21625845000000002, 0.190273425, 0.14332637, 0.09433433100000001, 0.066444634, 0.0701889975, 0.095797817, 0.12206373499999999]]","[[1.17929575, 1.1277275500000001, 1.0152565199999999, 0.8986367850000001, 0.805926455, 0.71948775, 0.613860235, 0.5125486149999999, 0.490780715, 0.58623102, 0.716055755, 0.741484225, 0.606664455, 0.3758022, 0.158695013, 0.0304315999, 0.0023052415115, 0.026022903, 0.019747920411, -0.07780934099999999, -0.26471937, -0.47703933499999995, -0.6307913549999999, -0.6748593350000001, -0.60726715, -0.45305810999999996, -0.254757785, -0.08650939599999999, -0.0361807205, -0.1313126435, -0.3017089, -0.44224651000000004, -0.49137014, -0.44414996, -0.33388844, -0.22904020500000002, -0.2071845, -0.289987135, -0.41417865499999995, -0.48280637, -0.445958795, -0.33810031, -0.24059013, -0.21048159, -0.247837325, -0.31704637, -0.37697139, -0.39139533, -0.334811325, -0.21271232, -0.0772567235, -0.0018338904945, -0.0253897127595, -0.1263899385, -0.23935425999999999, -0.28710099499999997, -0.218758495, -0.051636109766, 0.12114414200000001, 0.19422166000000002, 0.139855793, 0.031637260082, -0.028584857, 0.0011032293149999999, 0.0995642505, 0.223446605, 0.31969545499999996, 0.331774655, 0.240934475, 0.1087538515, 0.041053163000000004, 0.0902945855, 0.21082394000000002, 0.302884645, 0.2948835, 0.19621316, 0.06796608475, -0.04408114741, -0.118833284, -0.130344415, -0.0618307003, 0.0554933154955, 0.15097989, 0.16924044500000002, 0.10771660300000001, 0.00479820641, -0.0934661805, -0.15036277, -0.13945681499999998, -0.053467143339999995, 0.07448754685, 0.17501266999999998, 0.19868633500000002, 0.168363715, 0.15004739, 0.17523971500000002, 0.21361185, 0.21767764499999998, 0.17097366, 0.0909858405, 0.00166222507, -0.09072480000000001, -0.19019594, -0.27274894, -0.275648475, -0.1665225555, -0.015787587745, 0.0641460335, 0.043532996500000004, -0.009965439860000001, -0.023075679999999998, 0.0197558111895, 0.0925383155, 0.16009006, 0.194174815, 0.19945961, 0.22290661, 0.30290664, 0.40655609, 0.44597512500000003, 0.37250965, 0.241013645, 0.16100843, 0.187910495, 0.27353202499999996, 0.332327085, 0.34505004499999997, 0.3694813, 0.451442885, 0.55400035], [-0.010377201126, 0.01956703585, 0.0333932905, 0.037254137, 0.02170320775, -0.007598534206500001, -0.0286190305, -0.0202064329, 0.0244628517405, 0.0820498515, 0.11280245000000001, 0.1003324225, 0.060053135, 0.0186774341, -0.015165298148999999, -0.052704167, -0.1029079495, -0.14660555, -0.139778325, -0.0736756955, 0.00765025869, 0.067700055, 0.09658025, 0.096665121, 0.076294563, 0.0572099285, 0.0667665085, 0.10232374200000001, 0.12399486, 0.105799312, 0.0616004995, 0.0173798772, -0.00110888602615, 0.035452482449999996, 0.1242469435, 0.20511354, 0.21123182, 0.143520685, 0.0716335345, 0.0568303465, 0.0914054245, 0.12248850000000001, 0.1100537815, 0.044064096324999996, -0.04723487595, -0.11969827450000001, -0.16374872, -0.18784772, -0.17123832, -0.10752413499999999, -0.0557904775, -0.0652290385, -0.10922237000000001, -0.142168365, -0.14949532, -0.14436515, -0.15467328, -0.19068708, -0.22500228, -0.23291848, -0.22505078, -0.22185923, -0.22544685, -0.21244879, -0.16184127499999998, -0.09439576000000001, -0.0735008, -0.143501039, -0.260190655, -0.31681237500000003, -0.26362626, -0.15818692, -0.0797424225, -0.052888747, -0.07209277, -0.13313752750000002, -0.211940635, -0.247688715, -0.18282435, -0.041800643400000004, 0.0693665045, 0.09808474800000001, 0.12238687499999999, 0.223783625, 0.353196995, 0.39838108, 0.31885601, 0.1699890245, 0.026037899471500002, -0.075960032, -0.119759645, -0.105424685, -0.054131976, 0.010949291299999999, 0.0852092975, 0.188267595, 0.321327395, 0.422351325, 0.41921401, 0.30892738999999997, 0.151816654, 0.023902707134, -0.0111806122825, 0.0720978255, 0.218411395, 0.317882125, 0.31608765, 0.25972892999999997, 0.21934131499999998, 0.20303305500000002, 0.16437223499999998, 0.0751424865, -0.0246463255195, -0.055082488, 0.02177284561, 0.1503760365, 0.22819443499999997, 0.20094947999999999, 0.10029056450000001, -0.0040347075525, -0.063234894, -0.0584828095, -0.00144144526, 0.065191935, 0.11531556999999999, 0.16447504, 0.215544355, 0.23040701500000002, 0.177803235, 0.08830647949999999], [-0.03545184792, 0.15098303100000002, 0.31610364, 0.42841195499999996, 0.43857128500000003, 0.32482407, 0.135835729, -0.02670844658, -0.0791980365, -0.013518184595, 0.113942421, 0.23233735500000002, 0.292662995, 0.279840095, 0.204335575, 0.089671657, -0.027450274126999998, -0.09947424399999999, -0.09448229, -0.02324902763, 0.0721330095, 0.151152785, 0.190502195, 0.179785575, 0.11941409350000001, 0.0285696049245, -0.0580545185, -0.1128061885, -0.13026210000000002, -0.11818453999999999, -0.0847436985, -0.037436514500000004, 0.013617003358999999, 0.06857149, 0.147099125, 0.25295119, 0.334411025, 0.3127468, 0.1649946185, -0.035475642665, -0.176827945, -0.196000375, -0.104376019, 0.043152012834999996, 0.18034773999999998, 0.25100348499999997, 0.230919445, 0.1361247465, 0.0089391813, -0.10487834700000001, -0.172282315, -0.180151425, -0.14254979499999998, -0.0897003515, -0.03529239845, 0.034276329787, 0.12391682250000001, 0.193139, 0.17135083, 0.022918780575, -0.19717859499999998, -0.37122122500000004, -0.41056417500000003, -0.31976656999999997, -0.177309955, -0.06458815300000001, -0.0211691415, -0.0427741465, -0.0968241705, -0.145902515, -0.16866558, -0.16304217000000001, -0.13509003, -0.09100949, -0.0350084272, 0.030876869941499997, 0.1052492665, 0.174806855, 0.20730346, 0.1719866, 0.072295665, -0.047472038249999994, -0.1292092945, -0.131555095, -0.049941660219999996, 0.079280402, 0.1973947, 0.24936186, 0.20383137999999998, 0.06659051949, -0.115805136, -0.27102763, -0.337663645, -0.30199124, -0.19824381500000002, -0.0709892445, 0.057914492510000005, 0.18165809500000002, 0.28075396, 0.32048709000000003, 0.275913945, 0.15192627549999999, -0.015106516595, -0.1673925325, -0.24558599999999997, -0.216250135, -0.09582040149999999, 0.05776133878, 0.18686930499999999, 0.264497995, 0.283936995, 0.24239412000000002, 0.149575951, 0.034812574685, -0.063681557, -0.11547012949999999, -0.1133862165, -0.0769054055, -0.0326988135, 0.007280783216, 0.04906553599999999, 0.095335751, 0.123668315, 0.10111000199999999, 0.019831083245000002, -0.09322803950000001, -0.20010836, -0.268279055, -0.27030219, -0.18419005500000002]]","[[-0.042421240549999996, -0.07252072550000001, 0.040557159507, 0.265446545, 0.44338819, 0.51528731, 0.61264125, 0.8510794300000001, 1.15009875, 1.3455874, 1.3792873499999998, 1.29513755, 1.16111485, 1.04506395, 1.00540455, 1.05172105, 1.1285476, 1.1633405, 1.11288535, 0.99284086, 0.89189671, 0.89720513, 0.95346227, 0.83990208, 0.3954860735, -0.22087895142, -0.664865815, -0.80417681, -0.79348968, -0.80715655, -0.85644936, -0.86468998, -0.81039879, -0.747526815, -0.73627522, -0.809455285, -0.9652301099999999, -1.13796475, -1.22694845, -1.18105845, -1.02661659, -0.8519353, -0.77508567, -0.8683767, -1.0579081750000001, -1.09989, -0.7537789600000001, -0.081900847655, 0.5118433, 0.706567505, 0.57014811, 0.34010345999999997, 0.153508685, 0.0323229360255, -0.038552941, -0.0692184845, -0.04186208835000001, 0.0517765728015, 0.09732015349999999, -0.125031495273, -0.679596625, -1.2899626499999999, -1.6018345500000002, -1.5963433, -1.5114447000000002, -1.4250067000000002, -1.12780744, -0.4730917535, 0.27163931365, 0.660661195, 0.61303409, 0.449270365, 0.46162196, 0.6470621400000001, 0.832563435, 0.90929763, 0.8862514, 0.8224253, 0.7757579450000001, 0.7851791, 0.8545856999999999, 0.939027615, 0.9734187950000001, 0.924668815, 0.808710175, 0.667778855, 0.53914148, 0.4460826, 0.409069, 0.43977051, 0.5134096, 0.5638310599999999, 0.5345768799999999, 0.44667814, 0.38808717000000004, 0.422568575, 0.529266795, 0.635199565, 0.68850617, 0.69631091, 0.69566649, 0.6757242999999999, 0.54180635, 0.220441331, -0.1796723474675, -0.41528616, -0.38274358999999997, -0.233349205, -0.1910773, -0.321805075, -0.48607591, -0.49787305000000004, -0.31308116, -0.06982837122, 0.059015477499999996, 0.03546204266, -0.028354406000000002, -0.008646947445, 0.0408094235, -0.12487070672, -0.6692496099999999, -1.41297515, -1.99136525, -2.21273755, -2.0713616, -1.5588543000000001, -0.720693845, 0.19070572349999998, 0.85555778, 1.029728465], [-0.1400544, -0.137979475, -0.12328979000000001, -0.1038371555, -0.0867233695, -0.079098664, -0.0788852575, -0.06708816749999999, -0.02320411497, 0.050693251, 0.123540285, 0.14880735, 0.09529960900000001, -0.021211559884999998, -0.14075975, -0.197709585, -0.162277895, -0.058467189115, 0.053775826, 0.1165776695, 0.102299389, 0.027813482055, -0.049751838, -0.06870085, -0.009575101645, 0.085311133, 0.14237396, 0.118172141, 0.030849132985, -0.06312129600000001, -0.111846581, -0.0967147365, -0.0347738129565, 0.0381267261, 0.0842863885, 0.0820192765, 0.0444031015, 0.0111367786, 0.01261530695, 0.045960648500000006, 0.08272468399999999, 0.092703953, 0.062400968499999994, -0.00122456211, -0.0751773, -0.12675255500000002, -0.132925195, -0.10521933600000001, -0.08357412800000001, -0.0965145215, -0.13252892, -0.152879985, -0.13167773, -0.082078121, -0.038127426, -0.0190113295, -0.021075686500000003, -0.032347324999999996, -0.0435125445, -0.049168583999999994, -0.042691850499999996, -0.017363405486500002, 0.020088851449999997, 0.0440590805, 0.0272591995, -0.0328846965985, -0.10347058799999999, -0.13954361, -0.11998110199999999, -0.056114776, 0.0224223862155, 0.082004537, 0.0983547445, 0.0646280285, -0.010484922430000002, -0.10132883200000001, -0.166368535, -0.17399219500000002, -0.1299882265, -0.063914866, 0.00989605154, 0.1051909245, 0.235146015, 0.36703876999999996, 0.41679421499999997, 0.32476182000000003, 0.128805893, -0.06650630854, -0.179087215, -0.19322293, -0.13861370450000002, -0.056745837, 0.017878142635, 0.068886438, 0.098798066, 0.11765005499999999, 0.13075914, 0.13238756000000002, 0.109846697, 0.057871002000000005, -0.01087500423, -0.0685716175, -0.08497362150000001, -0.048899754499999996, 0.01798014014, 0.0790697875, 0.110620565, 0.10707212, 0.075234739, 0.031761014, -0.0007923464219999999, -0.0025680145398499997, 0.031941003600000004, 0.08959402649999999, 0.14828677, 0.18677433000000002, 0.18861068, 0.14740311, 0.0747514045, 0.004564772771, -0.0233824215, 0.006678083259999999, 0.0760407145, 0.146324555, 0.18242314, 0.174866865, 0.142573585, 0.109017649, 0.082088964, 0.057174249], [-0.118998675, -0.08426199549999999, -0.053123125, -0.0292290685, -0.015466190500000001, -0.0142471005, -0.0270100235, -0.051084964499999996, -0.0735315515, -0.07726208500000001, -0.060653789, -0.039998716000000004, -0.0294262005, -0.0253846815, -0.0187041445, -0.00773927375, 0.006106668331, 0.0207317245, 0.035786698, 0.0519263775, 0.06617664849999999, 0.072165942, 0.0646624805, 0.046695875000000005, 0.0258671775, 0.007597550205, -0.0017011898885000002, 0.0045404664665, 0.023841834500000002, 0.045867486, 0.0652163165, 0.08452525749999999, 0.1024861125, 0.104088358, 0.07427634300000001, 0.021092295229000003, -0.02703720235, -0.046323788, -0.03885014, -0.028111306, -0.031143405, -0.0438724885, -0.0516694225, -0.0444039485, -0.02245674525, 0.003966153355, 0.020507862, 0.0165432062, -0.011189061569, -0.0511530725, -0.0810623405, -0.087855277, -0.075965771, -0.056645408, -0.0361856645, -0.01617685235, -0.0016888252304400001, -0.0020395525175500003, -0.0184484198, -0.0404182765, -0.055113378, -0.0574295715, -0.0539518305, -0.048802453, -0.034730459000000005, -0.01015242265715, 0.009294515599999999, 0.0117166679, 0.008361385249999999, 0.014246025499999999, 0.024684806, 0.02596267, 0.0163037225, 0.0070834754, 0.01227097345, 0.0378616, 0.0722973565, 0.0901384435, 0.074058299, 0.03217056685, -0.0111547857745, -0.035512972000000004, -0.0387128965, -0.030951268, -0.0219564025, -0.0179627235, -0.021823883, -0.036393947999999995, -0.06318196549999999, -0.09555304299999999, -0.11815220500000001, -0.11911339, -0.1012071345, -0.0759655115, -0.0517379935, -0.0305740605, -0.0160184, -0.015925528499999998, -0.033649223, -0.061757347, -0.08769234349999999, -0.1039866825, -0.112553585, -0.117093645, -0.11301151000000001, -0.09214078949999999, -0.0551023835, -0.012228185903999999, 0.026612153799999996, 0.054414008, 0.067109181, 0.066058524, 0.0590900275, 0.056118984499999996, 0.06404615050000001, 0.08555275350000001, 0.118396425, 0.15490045500000002, 0.186966825, 0.2128191, 0.23298313499999998, 0.24137006, 0.23363802, 0.219664705, 0.216353895, 0.232116415, 0.261003885, 0.287020105, 0.29005663, 0.25688388]]","[[0.791618935, 0.873166885, 0.877340095, 0.79757313, 0.679055155, 0.571742035, 0.505018525, 0.50157902, 0.59343678, 0.8047039100000001, 1.076075575, 1.2505581, 1.2031733, 0.9620635350000001, 0.685168015, 0.525700265, 0.510394035, 0.5372768400000001, 0.474267745, 0.2550807475, -0.0829241305, -0.41223274, -0.58033334, -0.511173425, -0.27364605000000003, -0.040619975485, 0.04782063499999999, -0.02295954108, -0.17330558150000003, -0.30490188, -0.3580297, -0.34311788, -0.319058015, -0.33197334, -0.38309076, -0.449374845, -0.511575845, -0.55875244, -0.57601417, -0.541289265, -0.46206479500000003, -0.40673183, -0.45195108500000003, -0.5945642999999999, -0.751502305, -0.8507445699999999, -0.8887161100000001, -0.8848233050000001, -0.8250645950000001, -0.7090170849999999, -0.6098968849999999, -0.606556235, -0.6853299300000001, -0.757328955, -0.739640395, -0.5982582399999999, -0.35849587499999996, -0.1104601305, 0.037171725485, 0.056694641, 0.032215548499999996, 0.068829392, 0.198675605, 0.37945496, 0.545398935, 0.643706745, 0.64520534, 0.5534998999999999, 0.415419725, 0.30910905499999997, 0.30169277, 0.394242505, 0.5138286750000001, 0.576043215, 0.54382255, 0.44570141, 0.350113185, 0.30213445, 0.29617989, 0.311017155, 0.33038689, 0.33062195000000005, 0.28834867, 0.20720881, 0.1183067015, 0.0544512265, 0.030348316, 0.0432842135, 0.08344443950000001, 0.13680302, 0.17891298500000002, 0.18445481, 0.160443195, 0.15606985, 0.215392175, 0.319754095, 0.39031473, 0.35788406, 0.22595343499999998, 0.060264419095, -0.077385227, -0.172566665, -0.22870327, -0.213295025, -0.08357631164500001, 0.1163587965, 0.24628184, 0.210573695, 0.061641912807, -0.070028112, -0.11061142, -0.084002314, -0.0507878135, -0.0505912075, -0.09492933649999999, -0.167181945, -0.22000983999999998, -0.20453403, -0.111673244, 0.02065254433, 0.130219859, 0.157788535, 0.08768909000000001, -0.0325447304895, -0.142890762, -0.21760522000000002, -0.24700778, -0.225316035, -0.17663658000000002, -0.144019185], [-0.1241811755, -0.224506545, -0.269310995, -0.21169225, -0.08067062105, 0.050894588145, 0.137414865, 0.184788275, 0.21352898499999998, 0.22119987500000002, 0.187136125, 0.09996247500000001, -0.022181613925, -0.1340773315, -0.19155406, -0.17781618500000002, -0.109084513, -0.02829113392, 0.02014429455, 0.019477292, -0.021200290566, -0.078689859, -0.121905335, -0.1307161, -0.1102990245, -0.08201668899999999, -0.06186701, -0.04691229350000001, -0.037061671500000004, -0.0598061405, -0.1360321105, -0.23042721, -0.26771671, -0.201966305, -0.06857156005000001, 0.040712776195, 0.066499421, 0.028542415550000002, -0.012760465428, -0.0070543533905, 0.056942535999999995, 0.1332429745, 0.14226874, 0.036265367575, -0.15097764700000002, -0.313440875, -0.354087855, -0.27280767499999997, -0.151770957, -0.0601399405, -0.01089774776375, 0.0030107755547999996, -0.02130359105, -0.08011167000000001, -0.13069313, -0.1031775485, 0.024250916560000002, 0.17999467, 0.25783681999999997, 0.21370653999999997, 0.101003733, 0.013852008071999999, -0.00859272105, -0.00897352995, -0.044666396500000004, -0.1189713975, -0.179959475, -0.17905200000000002, -0.1194046445, -0.036178730679500004, 0.04410233045, 0.100139567, 0.0983501495, 0.0107408135255, -0.1447024275, -0.286602685, -0.32112485999999996, -0.23033219, -0.086295506, 0.0316088764, 0.09882222349999999, 0.12438645, 0.11745248999999999, 0.0792428535, 0.007923514647500001, -0.086426463, -0.1787569, -0.23813343, -0.24334425499999998, -0.197061485, -0.119368175, -0.034274052274, 0.043711586499999996, 0.12017828950000001, 0.20031290999999998, 0.260987535, 0.27013213, 0.22915638000000002, 0.17480395999999998, 0.146363885, 0.157696635, 0.188013825, 0.198433505, 0.16112594000000002, 0.0866087505, 0.035198717, 0.0722375975, 0.19290558000000002, 0.3148238, 0.352339815, 0.2932834, 0.21097723999999998, 0.193251095, 0.25690704, 0.34908268, 0.41182029, 0.41876066, 0.367811025, 0.27681991, 0.195309165, 0.18350133, 0.26175477999999996, 0.39485775500000003, 0.519850355, 0.583266235, 0.56183624, 0.45640424500000004, 0.28768756, 0.1116483005, 0.011528206249999999], [-0.21559224, -0.0146153380045, 0.1319588975, 0.1401768385, 0.010154668005, -0.172509426, -0.2898642, -0.26224956, -0.1044163294, 0.078984218685, 0.17132003, 0.1348089065, 0.0365649242945, -0.01832799895, 0.015939935445, 0.09458642749999999, 0.138155655, 0.11136312500000001, 0.044297968, -0.01073696451, -0.026638736500000003, -0.0059869275725, 0.0395476845, 0.09139275899999999, 0.12347867000000001, 0.125027825, 0.114385125, 0.11120519, 0.1039528155, 0.066555369, 0.003189561239, -0.042828586499999995, -0.0311942138, 0.0343638666205, 0.1132679175, 0.16087605, 0.14976206, 0.08393487549999999, 0.008506261627, -0.013621562254999999, 0.04502834535, 0.144687556, 0.20003415, 0.1458957125, 0.002810853751, -0.1214328045, -0.11983392500000001, 0.00819684769, 0.1486303375, 0.175281955, 0.055144860245, -0.1307056905, -0.24843504, -0.209489045, -0.037021179305, 0.1519953745, 0.23295756999999997, 0.160802619, -0.00508800818, -0.148824139, -0.184878165, -0.124489631, -0.061744297499999996, -0.08682934299999999, -0.20537265500000002, -0.332728705, -0.36753328500000004, -0.28391906, -0.15573394499999998, -0.0887744775, -0.1321278745, -0.24513248499999998, -0.331547495, -0.305741005, -0.1516101905, 0.061119129395, 0.217550575, 0.233166385, 0.1161278175, -0.0307771827852, -0.082489311, 0.011264372539, 0.191695344, 0.34407092499999997, 0.381828, 0.29850349000000004, 0.158872568, 0.042468923199999994, -0.015303304987, -0.036581334, -0.064483337, -0.11412875, -0.15596241, -0.14519849499999998, -0.0651792157, 0.055645817078, 0.16267115000000001, 0.210877025, 0.19313340499999998, 0.1420311, 0.10028426100000001, 0.08632949449999999, 0.0895370785, 0.0891329595, 0.07360079950000001, 0.051874532999999994, 0.048480214, 0.08149949299999999, 0.14204883499999998, 0.196095775, 0.207432345, 0.166373095, 0.100246857, 0.054002427500000005, 0.05844697, 0.1060294985, 0.148847345, 0.1306037985, 0.03590762144, -0.086901654, -0.15526278500000001, -0.1188106505, -0.00882725522, 0.079937883, 0.067741329, -0.03979051111, -0.15413821, -0.17517400500000002, -0.0691312969915, 0.10332553000000001]]","[[1.08116145, 1.1581587999999998, 1.2211832, 1.26515175, 1.25135065, 1.1284676500000002, 0.91356185, 0.7402946450000001, 0.780039515, 1.07175002, 1.44186975, 1.6404353, 1.55180875, 1.25736845, 0.93501427, 0.726149845, 0.66149806, 0.66359133, 0.60999575, 0.42234329000000004, 0.120451022415, -0.192361288, -0.40548188500000004, -0.48037588, -0.453842455, -0.37401298, -0.27143757, -0.19293922, -0.2034572, -0.32342733500000004, -0.4969497, -0.640833435, -0.701475055, -0.668262335, -0.570889715, -0.476774305, -0.45828296, -0.536567275, -0.65618836, -0.7236233300000001, -0.688890955, -0.595181435, -0.537126395, -0.57148336, -0.6788724150000001, -0.79804209, -0.86707375, -0.8360352050000001, -0.691009265, -0.49786775499999997, -0.37789639, -0.403222405, -0.5366329799999999, -0.677530415, -0.73324584, -0.65156172, -0.4379216, -0.17224740449999998, 0.020645911925, 0.061515737, -0.014175839459999999, -0.088654648, -0.068283409, 0.045471044295, 0.18850123, 0.29699067500000004, 0.32935161999999996, 0.27325925, 0.16671603999999998, 0.100822523, 0.158022635, 0.32082509000000003, 0.46601441, 0.47222917000000003, 0.336066795, 0.17436201, 0.1003340985, 0.12606864, 0.19741315499999998, 0.27272618000000004, 0.33334337499999994, 0.357300275, 0.32705735500000005, 0.25289402, 0.165916625, 0.0918288355, 0.041626241, 0.025182833499999998, 0.060515575, 0.1549726795, 0.275797895, 0.363176175, 0.39373574499999997, 0.41433548000000003, 0.486421025, 0.60389104, 0.68689172, 0.6588604499999999, 0.5174010450000001, 0.33247496, 0.18654031, 0.11595729499999999, 0.105490195, 0.13155614, 0.18824255, 0.256340985, 0.27530933, 0.19895055, 0.06735185725, -0.024246724809, -0.022932765425, 0.04020999405, 0.0949786825, 0.08823975, 0.0067037400965, -0.10519101450000001, -0.153167325, -0.0716277774035, 0.0905618981, 0.189632575, 0.1165666725, -0.09662391074, -0.311728505, -0.41275038000000003, -0.38526792, -0.28259584, -0.147464131, 0.0091247867825, 0.1734936905, 0.302034745], [0.0405798634, 0.0941345235, 0.0937221055, 0.036357252565, -0.0506102572, -0.11657853850000001, -0.1143106285, -0.029372159105, 0.1045055205, 0.229687475, 0.302508305, 0.298375135, 0.20855740999999997, 0.0584002435945, -0.091425243, -0.18034681500000002, -0.18428603500000001, -0.1214214565, -0.02711852937, 0.0657274395, 0.12212867499999999, 0.11301159200000001, 0.0375306493605, -0.06615842200000001, -0.13724865, -0.1372013, -0.080935095, -0.016525167516, 0.0105495083, -0.023201407918500002, -0.108875402, -0.204122585, -0.247992245, -0.197219935, -0.0678895949, 0.0724273669, 0.168344155, 0.20729111499999997, 0.201618335, 0.17067448, 0.129678705, 0.0842862755, 0.029935730536000002, -0.0431242123, -0.1287520205, -0.19159294500000001, -0.19913676500000002, -0.16576939, -0.13858004, -0.14451099, -0.17074929, -0.18697482499999998, -0.17752542, -0.15674217499999998, -0.143935325, -0.13086036, -0.0972730805, -0.050699795, -0.0271603395, -0.04639157, -0.081207611, -0.08615876800000001, -0.045475535000000004, 0.014869332211699999, 0.0484524995, 0.02462669214, -0.044239493149999996, -0.11914216250000001, -0.17029434, -0.181964205, -0.14203669, -0.0583172245, 0.021713500411, 0.0309291051, -0.058288371809999996, -0.19501608999999998, -0.28686029, -0.27766971, -0.18337561000000002, -0.0624724729, 0.03198108827, 0.082958801, 0.114535177, 0.15122209, 0.17313873999999999, 0.137085835, 0.03002932769, -0.10904246349999999, -0.222340445, -0.27158713, -0.24856062, -0.169977555, -0.05811760689, 0.07246476825, 0.20652365499999997, 0.32153819, 0.3889066, 0.37936349, 0.28911437, 0.164781925, 0.072754436, 0.0466224755, 0.076912825, 0.133049375, 0.18164564500000002, 0.20622826, 0.219011065, 0.23719179499999998, 0.25370623999999997, 0.247960965, 0.21694349, 0.18282522, 0.17189938000000002, 0.198671765, 0.266718465, 0.36337098500000004, 0.44915849, 0.46901564, 0.391516955, 0.24510414, 0.1075430885, 0.05217325, 0.101896254, 0.22754953, 0.37418464999999995, 0.487458965, 0.52209638, 0.451479125, 0.297029655, 0.14020303350000002], [-0.21463242000000002, -0.051443736080000003, 0.0960167125, 0.175781505, 0.15509171, 0.0399146260105, -0.113061103, -0.21153686, -0.17950603999999998, -0.01373184634, 0.201749497, 0.340361915, 0.31896964499999997, 0.162848387, -0.015070285215000001, -0.0990531935, -0.048561724175, 0.083079629, 0.193289315, 0.20273067, 0.11039127600000001, -0.0049174793355, -0.040026847, 0.04812088366, 0.19761837499999999, 0.29434762, 0.27046183500000004, 0.1476127605, -0.003178307815, -0.1182501535, -0.15869277, -0.111904069, -0.0031496600549999997, 0.11050457500000001, 0.18127495, 0.19731215, 0.16864532000000002, 0.108108091, 0.033411487715, -0.02338365195, -0.028323726100000002, 0.028317887910000002, 0.1175139665, 0.184871285, 0.193816155, 0.1553579, 0.10914600549999999, 0.0808094365, 0.0635502625, 0.03736945, -0.007475772585, -0.06365981899999999, -0.11295035950000001, -0.1349227, -0.1171289895, -0.0605690915, 0.021742717264, 0.09693088400000001, 0.10894890500000001, 0.01178226438, -0.171297675, -0.338355485, -0.386701525, -0.30241266499999997, -0.168598805, -0.0848072185, -0.0851665035, -0.136203575, -0.198141245, -0.25891024, -0.309667685, -0.32757046, -0.297231325, -0.22846221, -0.1384818935, -0.033731417613, 0.07695341, 0.16489745, 0.19379046500000002, 0.143763177, 0.026003965415, -0.10720490099999999, -0.17667393, -0.121823112, 0.047182063372999995, 0.242644935, 0.35953367999999997, 0.344459295, 0.21639023000000002, 0.041993063590000004, -0.101218378, -0.16154237, -0.138052525, -0.071644201, -0.0087117781865, 0.0321369705, 0.06581587800000001, 0.1143218525, 0.17698788499999998, 0.225642975, 0.22548127, 0.165220625, 0.07008279049999999, -0.012547617152999999, -0.045071044000000005, -0.0199695801525, 0.04026746865, 0.0987713605, 0.12826084, 0.12612993, 0.11375275, 0.115033995, 0.130453135, 0.134353635, 0.100862046, 0.028955639565000003, -0.057997714, -0.1273617535, -0.15024136999999999, -0.111908744, -0.023314501045, 0.079552563, 0.153269775, 0.164160885, 0.0989483185, -0.019979058977, -0.1354844175, -0.185529975, -0.1361115665, 0.00835221093]]","[[0.9267304900000001, 0.9382838250000001, 0.959950125, 0.95044149, 0.8585471699999999, 0.6891703250000001, 0.5217776700000001, 0.455878145, 0.54068563, 0.74163077, 0.9395083049999999, 0.9860712599999999, 0.8216443649999999, 0.534702625, 0.292613785, 0.20958255999999997, 0.258976875, 0.299042295, 0.1917764525, -0.08827704992999999, -0.43805023499999995, -0.6979579800000001, -0.7576217350000001, -0.627677465, -0.42016657, -0.24995614, -0.150520225, -0.0928117965, -0.0581643805, -0.0552370455, -0.096696892, -0.18960677, -0.32053908999999997, -0.43890656499999997, -0.48371256, -0.44218578000000003, -0.367786665, -0.33087091999999996, -0.350782275, -0.3799572, -0.370985285, -0.3467468, -0.368573335, -0.444872005, -0.518343365, -0.547854065, -0.560493645, -0.59913829, -0.6492969150000001, -0.6647266000000001, -0.642034565, -0.6144966550000001, -0.598836535, -0.587362285, -0.563128635, -0.49965513, -0.376437825, -0.21858785, -0.0939196675, -0.0417548, -0.027000204, 0.0147842418335, 0.1073320815, 0.2212491, 0.31576391000000004, 0.37040160499999997, 0.37839924, 0.34171348, 0.28914896, 0.27380918, 0.3215069, 0.38483591500000003, 0.376844385, 0.27699099, 0.178342035, 0.19300804, 0.32212651999999997, 0.45695086, 0.50233778, 0.459411445, 0.38915958500000003, 0.336277435, 0.306813475, 0.290314885, 0.274616635, 0.249437775, 0.213378635, 0.180703645, 0.17695335499999998, 0.216961405, 0.27871854, 0.31656447, 0.31978347500000004, 0.33760297, 0.41661257999999995, 0.52521328, 0.57102686, 0.49541351499999997, 0.32850055, 0.147905835, 0.0023134822465, -0.1105565295, -0.19206988, -0.19603292, -0.0777785546, 0.1115307225, 0.2349691, 0.202311525, 0.062063463305, -0.062170428500000006, -0.1001998845, -0.08037948099999999, -0.0728564, -0.121926568, -0.22294694, -0.33019674000000004, -0.38159684, -0.34543245, -0.254010605, -0.17764295, -0.163305845, -0.20207664, -0.24064629499999998, -0.22750665, -0.16848402, -0.1238723, -0.141173845, -0.210812515, -0.28872448500000003, -0.33616456499999997], [-0.174095445, -0.19017197500000002, -0.15406007, -0.06665146400000001, 0.01181538317205, 0.039018399499999995, 0.0397252555, 0.0676005545, 0.140105973, 0.21376330500000001, 0.220162605, 0.1267906185, -0.034086811344000004, -0.18543508500000003, -0.254160135, -0.21765451500000002, -0.11709546100000001, -0.022154795275, 0.020895998050000003, 0.0047501491880000005, -0.054099512, -0.1265772665, -0.18067688499999998, -0.19238286500000001, -0.15215419, -0.0746386275, 0.001287342562, 0.03943297, 0.022679225925, -0.0552694414, -0.180297235, -0.295711275, -0.32262375, -0.229846795, -0.082576435, 0.0108628990985, 0.009857785732499999, -0.032788226499999996, -0.0440192535, 0.003675679079, 0.0795680135, 0.121341345, 0.08019718749999999, -0.04031258495, -0.16812351499999997, -0.203417085, -0.11644605849999999, 0.005283914640000001, 0.041621135999999996, -0.03639411852, -0.1479338565, -0.19383599, -0.149356065, -0.06893446, -0.0074580966250000005, 0.0356820265, 0.080357778, 0.110508045, 0.088116736, 0.01342765972, -0.055748986, -0.0625320515, -0.019350013762, 0.0020866173569999997, -0.055908327499999994, -0.17568615, -0.27117106, -0.265016415, -0.1551338, 0.0029324693349999996, 0.1529963135, 0.250256005, 0.24554649, 0.113293009, -0.08986600275, -0.23759836499999998, -0.24024065, -0.1206509395, 0.029160656724999998, 0.1424236155, 0.207622955, 0.22623044, 0.18557162000000002, 0.089910954, -0.01307859896, -0.073646554, -0.0900906195, -0.09302729550000001, -0.10518220149999999, -0.12708392500000001, -0.142892605, -0.13483969, -0.09330827250000001, -0.01955683211, 0.0725388575, 0.156982575, 0.201492675, 0.179324195, 0.0924493525, -0.00808992212, -0.051328391499999994, -0.010559354292, 0.0726967275, 0.131191955, 0.13316039999999998, 0.1046151, 0.097520255, 0.135115725, 0.18749371, 0.20771756, 0.190881045, 0.180010775, 0.20565135, 0.249321635, 0.27776384, 0.282354525, 0.27294402, 0.2565089, 0.238853475, 0.231001955, 0.238886725, 0.25823353, 0.28582081, 0.33017173, 0.39872122, 0.46567824, 0.47292911, 0.38567921499999996, 0.25513658, 0.21179813], [-0.33780066, -0.16834838950000003, 0.0018497994249999999, 0.0974742455, 0.07121414549999999, -0.05404966459, -0.184918275, -0.21263868, -0.091386914165, 0.125939486, 0.321946, 0.3871788, 0.28769404000000004, 0.09039507936999999, -0.07615747645, -0.10598654399999999, 0.010010583909999999, 0.1763309185, 0.25970991, 0.1848778765, -0.004880032487, -0.170768755, -0.18050344, -0.01921659456, 0.19342099000000001, 0.308714155, 0.27245313, 0.14489853, 0.022645385614500003, -0.031529912, 0.0015726707, 0.10681463100000001, 0.2323931, 0.305841885, 0.28286157, 0.17938941, 0.0548705981, -0.0273683148, -0.032462961250000005, 0.031612559405, 0.1226554035, 0.189771, 0.19507829000000002, 0.127603998, 0.017398878275, -0.0705808535, -0.0833014695, -0.031320584332, 0.01855043043, 0.0067763502259999995, -0.07096523, -0.16618976, -0.21278432, -0.172877845, -0.0656898612, 0.04688994922, 0.10674151650000001, 0.09175318049999999, 0.013563820781, -0.093574477, -0.17978011500000002, -0.204385145, -0.16930554999999997, -0.11957018, -0.106250135, -0.144030065, -0.20183235, -0.235439055, -0.2278496, -0.197142115, -0.16822986499999998, -0.145637995, -0.11975828999999999, -0.0895235505, -0.061681607, -0.034181777499999996, 0.0012730144130000001, 0.040413805500000004, 0.0623538515, 0.051772403, 0.023108805, 0.015197289499999999, 0.0588155505, 0.1502239865, 0.24731662, 0.29109237, 0.24353352, 0.117520248, -0.02492424928, -0.113951254, -0.1197451265, -0.0636328405, 0.0066286591245, 0.049702881000000004, 0.053674001, 0.0377737385, 0.032307231500000005, 0.052188086, 0.086658571, 0.113868735, 0.119339345, 0.10267142099999998, 0.0792136705, 0.075079146, 0.1064511995, 0.159571575, 0.19309117, 0.167979555, 0.087731472, 0.006900701366500001, -0.013870192786, 0.0377512807, 0.12123233900000001, 0.18330724, 0.19415035, 0.15153429, 0.071106659, -0.0161633090985, -0.073629943, -0.0817766255, -0.051324586500000005, -0.012738749728000001, 0.006276487, -0.00436936478825, -0.036866590000000005, -0.0707499725, -0.0794610125, -0.0405585428, 0.048063180175, 0.154691775]]","[[0.9446225250000001, 0.90492457, 0.9133285, 0.97662932, 1.000749485, 0.8726929099999999, 0.61432656, 0.43504082, 0.5653430500000001, 0.9944937450000001, 1.43698945, 1.59333135, 1.391163, 0.979432435, 0.5743898949999999, 0.34239245500000004, 0.34272381, 0.49473764000000003, 0.618380315, 0.562725345, 0.31454548, -0.011480144409999999, -0.2832194, -0.44995047499999996, -0.527557415, -0.519790345, -0.42317456, -0.299865765, -0.263062455, -0.365823945, -0.546585695, -0.6972847799999999, -0.747837605, -0.6868761449999999, -0.55498485, -0.43958608, -0.43036171, -0.541615995, -0.689819715, -0.76363783, -0.71790356, -0.604602145, -0.52005866, -0.52463265, -0.6113103799999999, -0.72956842, -0.813271375, -0.79903403, -0.660272875, -0.438361295, -0.22479430999999997, -0.1045676015, -0.108930068, -0.20875792, -0.33266579, -0.394577235, -0.33761472500000006, -0.1798694145, -0.015693480529999998, 0.0509524695, -0.003778031565, -0.099688569, -0.132386905, -0.069386767, 0.048887630155, 0.15771735, 0.19419824500000002, 0.13245767949999998, 0.037370416999999996, 0.0413454555, 0.211458065, 0.454873015, 0.580291345, 0.465797055, 0.18680652899999997, -0.050155322264000005, -0.1172912655, -0.050526421419999995, 0.05943095435, 0.17353964000000002, 0.28990292, 0.388480175, 0.432112045, 0.40797217, 0.34280493999999995, 0.27826375, 0.24458432, 0.25691343499999997, 0.319191755, 0.414215115, 0.492333, 0.499829165, 0.440140235, 0.38532491, 0.40061349, 0.467234055, 0.49710840500000003, 0.42062818999999996, 0.24912420000000002, 0.057429676885500006, -0.0818828345, -0.148906655, -0.170837425, -0.17380316499999998, -0.15110784, -0.089228622, -0.016108168505, 0.021317957999999998, 0.029971063500000002, 0.060754075, 0.125073658, 0.17234069500000002, 0.15555868, 0.080628632, -0.010915931937, -0.062375843, -0.0123462219415, 0.1481078295, 0.31620569, 0.32788161000000005, 0.11485758095, -0.1985972025, -0.400697205, -0.38252874499999995, -0.1929170105, 0.050227878634999994, 0.25584371499999997, 0.393296065, 0.484073865, 0.54446472], [0.0746838705, 0.12455253499999999, 0.115570419, 0.066163206, 0.023510208, 0.0205737045, 0.055978387, 0.110133677, 0.164723115, 0.21041310500000002, 0.24118161000000002, 0.241258635, 0.19209832500000001, 0.0960636575, -0.018725520165, -0.11291204199999999, -0.15533754, -0.14008627, -0.083236197, -0.0101729015145, 0.048610414500000004, 0.070273534, 0.055404154, 0.0255454785, 0.0062544468, 0.0037857542500000004, 0.000496753483, -0.02032992455, -0.0580974245, -0.10107800149999999, -0.13648970500000002, -0.15563066, -0.148224015, -0.1003202175, -0.014639680587449999, 0.07961130050000001, 0.147585535, 0.169213725, 0.14616196, 0.1000024975, 0.055819572, 0.024361098499999997, -0.001754631666, -0.040901496999999995, -0.1032839925, -0.170202255, -0.209596075, -0.21485295000000001, -0.208620435, -0.210339515, -0.21670832, -0.21232133, -0.19300056999999998, -0.17259784, -0.15973062000000002, -0.14286583, -0.11007710899999999, -0.069012905, -0.043221683500000004, -0.050645661, -0.078633492, -0.0881199415, -0.0513507815, 0.020567693495, 0.0821165405, 0.084685922, 0.016871019174999998, -0.086064053, -0.16729202499999998, -0.180433385, -0.1164618025, -0.008997923255, 0.0875791645, 0.122500815, 0.067526132, -0.057679052925, -0.18335653000000002, -0.237522545, -0.194553055, -0.07811789834999999, 0.05973984506, 0.165177595, 0.21763687999999998, 0.23350248, 0.226251115, 0.18617521499999998, 0.10641136899999999, 0.0089131382, -0.071443261, -0.114450022, -0.117824105, -0.08820132850000001, -0.027336419749999997, 0.07191360399999999, 0.205006495, 0.33884631499999995, 0.42314164499999996, 0.41612523, 0.311718055, 0.1549956845, 0.019305830669, -0.0421871275, -0.021753630588499998, 0.047152786950000004, 0.11386613450000001, 0.149122735, 0.15955004, 0.164303315, 0.17106923, 0.171175905, 0.15309569, 0.120058455, 0.08860775950000001, 0.077956727, 0.10535405049999999, 0.17223756999999998, 0.24774678000000003, 0.277876175, 0.225649705, 0.10668687, -0.02230227858, -0.1025382135, -0.1015693235, -0.028196682093, 0.073680593, 0.15653703500000002, 0.189092815, 0.15737436000000002, 0.0730862115, -0.02829309029], [-0.024251233120000004, 0.20941868849999998, 0.42961071500000003, 0.562760845, 0.53220481, 0.32342937499999996, 0.023274171795, -0.21800448500000003, -0.28239433999999997, -0.157156617, 0.071614231775, 0.28420455, 0.395012285, 0.38124887, 0.2680977, 0.1032130965, -0.053143238115000005, -0.135044395, -0.103525691, 0.01481677113, 0.140248394, 0.2030999, 0.19123710500000002, 0.13488249, 0.0618440765, -0.0173318452565, -0.09105779, -0.13653074, -0.13795749499999999, -0.10347231949999999, -0.053516883999999994, -3.7327888999999934e-05, 0.057671493500000004, 0.127088014, 0.214566245, 0.30557839000000003, 0.348759315, 0.281914495, 0.09612279543999999, -0.1293877675, -0.27348295499999997, -0.26060156, -0.10877067025, 0.0927518392, 0.244649455, 0.290741695, 0.23708284500000001, 0.131847444, 0.027720552735, -0.04437437, -0.080882714, -0.0920662625, -0.08301453199999999, -0.0497604655, 0.0083068505335, 0.080550442, 0.146962615, 0.172507365, 0.1052786395, -0.08465863205, -0.34435872500000003, -0.5407367750000001, -0.55750111, -0.39627614, -0.1733379665, -0.016006262711, 0.027326497, -0.013245189635000001, -0.0850867895, -0.151237125, -0.19128234, -0.19391379, -0.16002181000000001, -0.10508817499999999, -0.045812995499999995, 0.013086980385, 0.0733375895, 0.127258815, 0.150003855, 0.111915682, 0.0070443610899999995, -0.12638109549999998, -0.21578634000000002, -0.19619028, -0.059920912501499994, 0.13059460250000002, 0.27975258000000003, 0.315515585, 0.22436591, 0.046021831575, -0.150012183, -0.28933458, -0.32314714, -0.252556785, -0.11919282199999999, 0.0295315438, 0.16624516, 0.28178359000000003, 0.365450315, 0.39124288999999995, 0.32707942500000003, 0.16658203, -0.041841711523500004, -0.20565224499999998, -0.245216995, -0.14966218, 0.02046897254, 0.18219719999999998, 0.28269207, 0.314452295, 0.29431052999999996, 0.240315335, 0.1676373, 0.0922388305, 0.030316412499999997, -0.00844753124691, -0.024219856499999998, -0.022253707999999997, -0.00990777675, 0.0039493404135, 0.01287665895, 0.015716103, 0.01293055845, 0.000766946649, -0.0265594835, -0.06694093, -0.107225154, -0.129097005, -0.113747763, -0.04379551407]]","[[0.809701005, 0.717345895, 0.64518094, 0.63400846, 0.61115399, 0.47316549, 0.24125496, 0.1035256595, 0.25129814, 0.643504265, 1.005257285, 1.0893935000000001, 0.8767822200000001, 0.53368501, 0.253484385, 0.149615245, 0.21983598000000001, 0.350982025, 0.385387295, 0.236410795, -0.044085549190000003, -0.313803145, -0.459924115, -0.480862915, -0.4501297, -0.41310834999999996, -0.36190084, -0.30567611499999997, -0.29414172, -0.34896284, -0.429123405, -0.48345993, -0.498530585, -0.4886587, -0.47340457999999996, -0.47579803, -0.512909905, -0.568524665, -0.58837178, -0.521589035, -0.379078315, -0.246577195, -0.22164252999999998, -0.32699526, -0.491878665, -0.6115125849999999, -0.613223225, -0.486234195, -0.28228722, -0.088219974, 0.02068768222, 0.017696040385, -0.06632174, -0.16766161499999999, -0.22171979, -0.18436521500000003, -0.05576424631, 0.098649149, 0.170836895, 0.092654423, -0.084702524585, -0.21021031499999998, -0.164550945, 0.02818005197, 0.24218670499999997, 0.35890105, 0.31703425, 0.131899923, -0.074486424215, -0.1147161145, 0.10165852878000001, 0.446317745, 0.650950355, 0.536465115, 0.18998836289999999, -0.1182654897735, -0.207900635, -0.10987521600000001, 0.0574431804975, 0.21938253, 0.343683195, 0.39762744499999997, 0.360262465, 0.25620239, 0.1443208155, 0.072247902, 0.0514914795, 0.0711831455, 0.1205223185, 0.18666496999999999, 0.23691089999999998, 0.23443839, 0.19372503000000002, 0.19285879, 0.291620355, 0.444257535, 0.525828045, 0.45041698500000005, 0.24744046, 0.02453657979, -0.127340535, -0.189957275, -0.19304865, -0.15527143000000002, -0.0724029565, 0.0374995856, 0.11351535350000001, 0.113912505, 0.08029187200000001, 0.093084308, 0.171220125, 0.24858104999999997, 0.24763262, 0.1510125935, 0.00582996065, -0.1074373045, -0.1100965805, 0.017321057881999998, 0.18300323500000001, 0.22621096000000002, 0.061720650834999995, -0.21568413549999998, -0.405529645, -0.38502252, -0.1969912815, 0.024004037865, 0.174478415, 0.24263277, 0.28149653, 0.31989044], [-0.074866881, -0.057378454, -0.0338460645, -0.005294213229, 0.0179481242, 0.0330830765, 0.051313408000000005, 0.085760208, 0.1357528, 0.185724165, 0.216631545, 0.211024565, 0.158990405, 0.073124333, -0.012298879229999999, -0.06556146, -0.08033224150000001, -0.071602151, -0.0523447605, -0.028933069, -0.012057761, -0.011477109999999999, -0.0268334415, -0.04592112550000001, -0.046251601, -0.017264566645, 0.01935325155, 0.029685489500000002, -0.004362009014, -0.0784858555, -0.168238265, -0.23524252, -0.23951055, -0.16538666, -0.048277843004, 0.04769659195, 0.089066483, 0.0897041475, 0.0818359415, 0.087944266, 0.1049312155, 0.10893309000000001, 0.076257724, -0.0003292569489999999, -0.095059522, -0.1514543, -0.135264025, -0.08232600550000001, -0.0651357635, -0.11606660299999999, -0.199671755, -0.25394946, -0.25144356, -0.21544134, -0.17279245499999998, -0.11870710300000001, -0.0447735242, 0.025558754135, 0.0499894935, 0.0131583457, -0.0476029425, -0.0740059525, -0.0422079905, 0.021844106989999997, 0.0680915995, 0.0632308365, 0.0168962082805, -0.0356305665, -0.0637075335, -0.048168382, 0.014093265825000001, 0.096301067, 0.14570892000000002, 0.11519933, 0.002066615895, -0.1406538275, -0.241725945, -0.26465520000000003, -0.21772585500000002, -0.124583903, -0.01136220136, 0.08263919250000001, 0.11885754, 0.0946463795, 0.042837084, -0.011344226209999999, -0.0693334705, -0.132967845, -0.19102594, -0.22804405500000002, -0.232555595, -0.20226766999999998, -0.1389646885, -0.044085791576000004, 0.0726166025, 0.1881265, 0.27101543, 0.28780158, 0.22596016500000002, 0.123961395, 0.0501215415, 0.042812154500000005, 0.0858720915, 0.134970145, 0.15833289, 0.16050572500000002, 0.17028734499999998, 0.205658185, 0.251210965, 0.27204992, 0.253549645, 0.21721307499999998, 0.188995085, 0.178255095, 0.19192796, 0.23425992999999998, 0.286782745, 0.312069065, 0.28886791500000003, 0.231594795, 0.16852257, 0.12090107, 0.10523191000000001, 0.13294085, 0.19842917499999999, 0.273274955, 0.31637888000000003, 0.301252885, 0.24940431, 0.22617522999999998], [-0.070900592115, 0.12890795300000002, 0.30066947, 0.357059, 0.24156416, -0.008615903724999999, -0.264861425, -0.38392426, -0.29796309, -0.054370602765000005, 0.21635002849999999, 0.381154865, 0.37998664499999996, 0.246564235, 0.0687595378825, -0.0667080015, -0.10743624349999999, -0.047619314165, 0.0706376382, 0.17679809999999999, 0.21788208999999997, 0.19479488, 0.15204689999999998, 0.130074655, 0.128737585, 0.120507655, 0.0904410165, 0.0506285045, 0.0180549609, -0.00022130167715, 0.0051334940815, 0.0494804835, 0.13371545299999998, 0.23190133500000001, 0.305215975, 0.31788854, 0.247296075, 0.1007345055, -0.073411406295, -0.19833096, -0.20721304, -0.08924358184999999, 0.091089901435, 0.22923185499999998, 0.25257977, 0.164827306, 0.027354237535000003, -0.09359063150000001, -0.159909935, -0.1633541, -0.122281929, -0.0712711025, -0.03605773, -0.013902741949999999, 0.017786640291, 0.072247468, 0.129621505, 0.137217495, 0.043937063915000005, -0.1466109165, -0.35082855, -0.45301571500000004, -0.394143865, -0.217043025, -0.031218034034999998, 0.071029967, 0.070754527, 0.0071884066460000005, -0.07334407650000001, -0.14076037, -0.171129415, -0.14886668, -0.08565191750000001, -0.016810955199, 0.029537312, 0.0499174615, 0.0506088845, 0.030524803500000003, -0.010526046805, -0.062041624999999996, -0.11176153850000001, -0.147566095, -0.14706351, -0.0849102085, 0.0376694910118, 0.17558176, 0.26044788, 0.24062916, 0.1114872145, -0.07777850378000001, -0.24513706, -0.32178888, -0.291480855, -0.187822255, -0.059901715065, 0.05743105925, 0.15040108500000002, 0.214626205, 0.243035635, 0.22246413499999998, 0.143069287, 0.01929975564, -0.099174448, -0.14916031, -0.09785256649999999, 0.033279534315, 0.180575215, 0.27356638499999997, 0.27108093, 0.180252895, 0.054784405764999995, -0.036725207100000004, -0.0546184465, -0.006705683939, 0.0661455315, 0.11822474050000001, 0.123043175, 0.083390898, 0.0240447347538, -0.02668123235, -0.0529913975, -0.05405669, -0.0377463945, -0.01413892615, 0.0078276451045, 0.0259671915, 0.047213371999999997, 0.08283556600000001, 0.143417155, 0.23756131]]","[[1.313007, 1.2101335, 1.15066715, 1.18870465, 1.24260455, 1.17060345, 0.96208467, 0.810281535, 0.93690175, 1.3087304499999999, 1.63036645, 1.64817225, 1.3602729500000001, 0.9522321549999999, 0.62624997, 0.504940165, 0.592641995, 0.743534425, 0.732292085, 0.461214605, 0.0598766249935, -0.25949338, -0.40952704500000003, -0.473720025, -0.564919145, -0.677750645, -0.718919035, -0.6469743200000001, -0.5180175100000001, -0.42811811499999997, -0.46085454499999995, -0.6325139, -0.8567262200000001, -1.00207953, -1.00780005, -0.9302930899999999, -0.857670205, -0.80820078, -0.750271025, -0.671592585, -0.599558635, -0.583402275, -0.645511535, -0.74414027, -0.7957400800000001, -0.750812505, -0.63058538, -0.48683867999999997, -0.36042664, -0.256686435, -0.1475586435, -0.021599367905000003, 0.075883682, 0.08300975049999999, 0.00610340272, -0.0707103, -0.0684905505, 0.02399778676, 0.1426274485, 0.177778635, 0.07967085075, -0.049959495405, -0.05194014083, 0.10670367835, 0.289830885, 0.328418165, 0.169676933, -0.0874214763825, -0.25394571, -0.1594063765, 0.209330564745, 0.637855185, 0.79223901, 0.481818965, -0.11910622808499999, -0.59166075, -0.6892786, -0.502700955, -0.232977845, 0.003216438975, 0.1486554685, 0.15639312, 0.04207729886, -0.09105850050000001, -0.14782116, -0.120531618, -0.059206563499999997, -0.011672601970500001, 0.0179865929, 0.06237029299999999, 0.131950539, 0.20537491, 0.2801924, 0.388872475, 0.5598274, 0.7634796199999999, 0.896073935, 0.8621673599999999, 0.6736492300000001, 0.43265141, 0.23540107500000002, 0.11705649, 0.0725876155, 0.1024403515, 0.21642688, 0.376361175, 0.481513315, 0.487797835, 0.47589006, 0.5233331050000001, 0.603225215, 0.644814085, 0.6049533, 0.49051265, 0.34731719, 0.23907657000000002, 0.24603513, 0.39206176, 0.5482625250000001, 0.502350965, 0.187251098195, -0.21084518800000002, -0.41940689, -0.33413044999999997, -0.07339495997500001, 0.1759319505, 0.30651119, 0.345345555, 0.38667217, 0.45042830500000003], [-0.32415353, -0.3181744, -0.30503927999999997, -0.263487565, -0.189139215, -0.1039204595, -0.0280041956995, 0.03604853275, 0.0941749965, 0.150070385, 0.193738215, 0.19430361000000002, 0.127027951, 0.019401723710500002, -0.0585207385, -0.0637914885, -0.015861524837, 0.035750447, 0.062164925499999996, 0.0604687235, 0.033143892, -0.003213734211, -0.015523948000000001, 0.016388395607699998, 0.073886937, 0.1083118085, 0.0885138025, 0.028087284233, -0.04186723575, -0.10446978850000001, -0.15206549, -0.17047262, -0.14601402, -0.08809380450000001, -0.0344514495, -0.018955587, -0.0338965505, -0.041233248, -0.011795975395, 0.0581680165, 0.14277976, 0.18443818, 0.1261627425, -0.027005063635000003, -0.190397585, -0.261440375, -0.21807168000000002, -0.15214801, -0.172605245, -0.285867635, -0.39947088999999997, -0.42442516500000005, -0.35522188499999996, -0.25034563, -0.148946464, -0.046424380075, 0.05478997025, 0.126288397, 0.14367086, 0.111393818, 0.0626293705, 0.034639325, 0.036553960499999996, 0.0423101725, 0.019124799774, -0.0372038226, -0.09557047199999999, -0.123576275, -0.108967328, -0.051222131500000004, 0.03549698895695, 0.1123985325, 0.134881575, 0.08208418, -0.035442711689999996, -0.18096613, -0.305703925, -0.37598408499999997, -0.37990242, -0.2985641, -0.120032622, 0.108924393715, 0.3072681, 0.417627735, 0.407493475, 0.276056835, 0.085370221435, -0.0646750951, -0.117716735, -0.0976486545, -0.0634919655, -0.0415244075, 0.0031284153240000003, 0.1187993675, 0.284740595, 0.41150523499999997, 0.42695436999999997, 0.3268696, 0.1590405175, -0.006560691835, -0.106901361, -0.11771599549999999, -0.06640064849999999, -0.0074921982435, 0.019201878500000002, 0.021419861999999998, 0.04089270800000001, 0.09978613149999999, 0.17532541999999998, 0.22901319, 0.24859732999999998, 0.258674955, 0.28500782, 0.32265326, 0.35528873, 0.375713395, 0.370039605, 0.31422101, 0.211582455, 0.11298930199999999, 0.076983922, 0.1195881525, 0.21279670500000003, 0.306835315, 0.35579077, 0.35201541, 0.31641312, 0.261574305, 0.19448721, 0.14095539], [-0.213327753, 0.06569479454499999, 0.331301735, 0.450199395, 0.330489405, 0.018977510955000002, -0.29584890999999996, -0.40124365500000003, -0.2131579805, 0.16410973105499999, 0.5232979449999999, 0.7032135099999999, 0.676316515, 0.520570075, 0.32867296500000004, 0.153914135, 0.026084194767, -0.0188970718, 0.03958624249, 0.1586350405, 0.23986324, 0.20809270000000002, 0.077367733935, -0.06962706915, -0.161413735, -0.188624565, -0.1855068, -0.18276474499999998, -0.18500809499999998, -0.18040265000000003, -0.15686659, -0.1072403265, -0.025095074570600003, 0.096936195, 0.25069491, 0.38711387, 0.424697145, 0.307095955, 0.0650386929355, -0.18297828549999998, -0.305407435, -0.24707213500000003, -0.061187680065, 0.1348608635, 0.24003354999999998, 0.223917905, 0.120583078, -0.00924156987, -0.10290630099999999, -0.11648454400000001, -0.05332763445, 0.038415302047, 0.1134060835, 0.170156395, 0.239505665, 0.33211301, 0.39606983, 0.33350144, 0.08193050659000001, -0.29784489000000003, -0.625953105, -0.728170415, -0.5710096649999999, -0.27815383, -0.024213008820000003, 0.0853520775, 0.050005337335000004, -0.070863017, -0.21140899000000002, -0.31710118000000004, -0.354465265, -0.32799415000000004, -0.271820585, -0.21307262000000002, -0.15784642, -0.114591495, -0.104289805, -0.137008605, -0.19477597, -0.24040917, -0.237359595, -0.165493245, -0.027184235305, 0.150607133, 0.32066537500000003, 0.42850560000000004, 0.42950975, 0.312948875, 0.1191820705, -0.075099396845, -0.198158075, -0.216492355, -0.140294332, -0.009430291942, 0.1298367605, 0.24588541, 0.328979425, 0.382209275, 0.39617905, 0.33401395, 0.16570527, -0.07472397582, -0.28220982, -0.35008792499999997, -0.24572064999999998, -0.016381623145, 0.24785646, 0.44625087999999996, 0.50484511, 0.41796052000000006, 0.24899190499999999, 0.08764166100000001, 0.0001293011135, 0.00470691765905, 0.0840561995, 0.20137354999999998, 0.304944555, 0.341087505, 0.28246013000000003, 0.149912591, 0.0005943731229999999, -0.11545222949999999, -0.183176425, -0.211335795, -0.213702115, -0.20320812, -0.18686844, -0.15455358, -0.0760841345, 0.07470313089]]","[[-0.07246628399999999, 0.042559148467, 0.05726223321, -0.12240244215000001, -0.40459654, -0.57199736, -0.50176676, -0.31953834000000003, -0.24707179499999998, -0.30234715, -0.34923792, -0.35055349, -0.352761065, -0.34666492, -0.291955395, -0.19572399000000001, -0.113372349, -0.10203884499999999, -0.19529987, -0.379167915, -0.56182353, -0.629628295, -0.505464855, -0.1657031118, 0.26266237400000003, 0.52229154, 0.500659825, 0.336514275, 0.215880565, 0.21904228499999998, 0.324584325, 0.43432262, 0.42980351, 0.27806407, 0.07950794605, -0.014720469055000001, 0.036255880505000004, 0.13895363400000002, 0.191804005, 0.175873325, 0.12329452099999999, 0.056202812, -0.00561033966, -0.010090436202499999, 0.0814115885, 0.1923706, 0.15517390450000002, -0.11003652774, -0.474158945, -0.70811734, -0.713781405, -0.603168495, -0.539574285, -0.547655865, -0.526914495, -0.42241939, -0.302990045, -0.25947776, -0.28628216, -0.28907505499999997, -0.20278605, -0.078100471, -0.025684580999999998, -0.106363921, -0.273370045, -0.36579786, -0.20487564249999998, 0.232133606225, 0.6869139049999999, 0.792974545, 0.45971717, -0.007756311414999999, -0.1569204515, 0.213734821035, 0.83604999, 1.2531084, 1.28823105, 1.076322345, 0.78421366, 0.4884484, 0.26933068, 0.203332785, 0.24946364, 0.289311215, 0.28416391999999996, 0.290550525, 0.31632600499999997, 0.28651592000000004, 0.16167077, -0.0012240017849999999, -0.12086065550000001, -0.16559801, -0.153432285, -0.13945897000000002, -0.173766785, -0.241671965, -0.28456663, -0.26495624500000003, -0.19680098000000001, -0.12108955999999998, -0.0542828685, -0.004725644752, -0.0029481793304999998, -0.061615904500000006, -0.13933695999999998, -0.197063985, -0.22651552, -0.220769855, -0.22687167500000002, -0.318778935, -0.46542898, -0.554273875, -0.527810115, -0.439494075, -0.39200573499999997, -0.45730986, -0.626605345, -0.7668487, -0.70562265, -0.40848443500000003, -0.035725338585, 0.18282889000000002, 0.154191092, -0.02018302747, -0.221032365, -0.39858721, -0.49757478499999996, -0.464926595, -0.34217177499999996, -0.22801715], [-0.16310316, -0.125757485, -0.077738786, -0.0441648, -0.035755379000000004, -0.051416411999999995, -0.0730737605, -0.066166791, -0.005602510126, 0.09692712549999999, 0.192011675, 0.218202115, 0.1455873175, 0.00788909429, -0.11469289999999999, -0.150956385, -0.0871115245, 0.024036676455000003, 0.104073235, 0.1066791425, 0.042284030755, -0.033113586975000005, -0.053135492, 0.008509620365, 0.1118024835, 0.180083275, 0.162622375, 0.07267004, -0.031367588775000003, -0.0948899325, -0.099315771, -0.063204178, -0.020607502750000003, 0.004277616643, 0.004328256535, -0.0163195581, -0.042830788, -0.0519064825, -0.0266219517, 0.030260852792, 0.09301866499999999, 0.12169401499999999, 0.0870820585, -0.004570924455, -0.11286072450000001, -0.186135315, -0.195769745, -0.162932925, -0.14179813, -0.165798705, -0.216989425, -0.25023635, -0.238011465, -0.19005481, -0.13510982500000002, -0.09216688449999999, -0.063613742, -0.044482079499999994, -0.030691022499999998, -0.0210935815, -0.01141672625, 0.0056514347954999995, 0.0249275335, 0.024191978500000003, -0.013971167644, -0.077593341, -0.125610745, -0.1201284225, -0.0585860005, 0.028809819748, 0.10147773750000001, 0.12720039, 0.0984851285, 0.03613856815, -0.029007613935, -0.07151581850000001, -0.074976144, -0.043349387, -0.0061936433076, 0.0075687759499999995, 0.00469084255, 0.03251904235, 0.13961437, 0.30610336, 0.422788425, 0.384009345, 0.19673739999999998, -0.02602514249, -0.165940595, -0.17945791, -0.09779304550000001, 0.01793910972, 0.11871528299999999, 0.18725859, 0.228003555, 0.24522223, 0.237436945, 0.20479155999999998, 0.1522549, 0.08763343600000001, 0.0208531842855, -0.035174189, -0.06435942950000001, -0.0588707195, -0.029290737999999997, 0.0084508549115, 0.044558030000000005, 0.068389979, 0.07042008599999999, 0.0521285535, 0.0256223415, 0.00848816925, 0.0161676065, 0.050030764000000005, 0.09434552099999999, 0.12484799, 0.12108135, 0.0761848, 0.00171120358, -0.0692862425, -0.09627699099999999, -0.062234096499999995, 0.012597412012, 0.08400739, 0.113711895, 0.100395464, 0.074805801, 0.061492703, 0.0557407595, 0.034044193], [-0.0283084585, -0.000675015602, 0.023206549, 0.03850315, 0.041403488499999995, 0.034119828, 0.023595553, 0.015982766, 0.015466094, 0.023530674, 0.0346819035, 0.038908849, 0.032083778, 0.0201560135, 0.0093363009, 0.00021687739839999998, -0.00540935795, -0.0024972523625000002, 0.0112402198, 0.0306751115, 0.046661905, 0.051582893500000004, 0.042098566000000004, 0.022159401500000002, 0.00036006493199999996, -0.0160594935, -0.023644075, -0.02319105, -0.017919347999999998, -0.008245556250000001, 0.0097363231475, 0.037182158, 0.065465333, 0.0788750525, 0.0658143895, 0.031131383000000002, -0.006549756336, -0.030702225, -0.037926477, -0.034981860999999996, -0.0280338905, -0.0179641145, -0.004125743439, 0.01003356055, 0.016706026, 0.009983925900000001, -0.00778451554, -0.027470021999999997, -0.0411750995, -0.045049454, -0.039850541499999996, -0.0311813515, -0.024445348999999998, -0.0199711445, -0.013663042649999999, -0.0028650424424999997, 0.0065911, 0.0029466041934999997, -0.016266522500000002, -0.037995054, -0.0467465855, -0.04090574, -0.033338917, -0.031295474, -0.0256408285, -0.00882362495575, 0.00898089095, 0.013348954500000001, 0.0059614784, 6.70735490165e-05, 0.0013988390714500002, 0.0036370776500000003, 0.00024925263915, -0.0046888795, 0.000386577962, 0.020691843300000002, 0.044881992, 0.0522791665, 0.0337389185, 0.001449789517, -0.0246924345, -0.034534176, -0.0341927805, -0.035284214, -0.040042995, -0.042634504499999996, -0.0397226195, -0.036649944, -0.043559372, -0.0635815485, -0.084757204, -0.09031903749999999, -0.076714668, -0.053737725, -0.0302402235, -0.008238376924500001, 0.0098093383, 0.017069769, 0.008793851214, -0.012714771885, -0.0394429505, -0.0613856115, -0.072609112, -0.0743754045, -0.068071084, -0.050563624999999994, -0.0207873876, 0.014330736168, 0.043671517, 0.058101901500000004, 0.056590499, 0.0465686555, 0.0377846535, 0.0364123175, 0.0433080555, 0.05688644, 0.075632081, 0.09656620099999999, 0.11502252499999999, 0.127910345, 0.132613535, 0.12461950999999999, 0.1063138225, 0.0916143085, 0.09379486849999999, 0.11367882, 0.14251645, 0.16906375, 0.182361915, 0.176987005]]","[[1.1549902, 1.1131696, 1.0578552, 0.9988617999999999, 0.9258793, 0.8101660850000001, 0.6506388350000001, 0.51724116, 0.509989525, 0.64294089, 0.7808017700000001, 0.76037097, 0.572412355, 0.35637620499999995, 0.24300578, 0.251938915, 0.30467347, 0.297842645, 0.1820080695, -0.0071696002195, -0.189922465, -0.3135609, -0.36150266000000003, -0.353096995, -0.35347456, -0.38916833500000003, -0.429244445, -0.45134458, -0.44213977, -0.38158011999999997, -0.2974406, -0.28274918499999996, -0.380784005, -0.51016476, -0.54772075, -0.46120783000000004, -0.32855677, -0.24614798000000002, -0.246338265, -0.287306755, -0.32416110000000004, -0.35254785499999997, -0.37647070499999996, -0.367659705, -0.30037486, -0.22201028999999997, -0.19854908999999998, -0.23111407499999997, -0.27876638, -0.28442501, -0.20814722, -0.10753527950000001, -0.097867018, -0.19362680000000002, -0.27634846, -0.24332571000000003, -0.115604611, -0.0190953712, -0.061501177, -0.206293235, -0.305927185, -0.24138674999999998, -0.0440286037295, 0.11345859600000001, 0.113789061, 0.0346655141, 0.00143968305917, 0.0065538613999999995, -0.019587280688999998, -0.041902800999999996, 0.046450291785, 0.24758869, 0.39786714500000003, 0.323667155, 0.057564947556, -0.1678153855, -0.173277195, -2.0222250000005717e-06, 0.17897071, 0.24637605499999998, 0.226203505, 0.19745266, 0.182660385, 0.161306105, 0.152591235, 0.202460935, 0.29644025, 0.3567294, 0.324714105, 0.22821792, 0.16736320500000001, 0.21970168999999998, 0.346574575, 0.440406745, 0.46274841, 0.451062395, 0.421960785, 0.349822315, 0.21733344, 0.078513023, 0.0324907755, 0.082793741, 0.088403554, -0.05721440624, -0.235959485, -0.23089642000000002, -0.006340506335, 0.25391188, 0.36028372500000005, 0.302984945, 0.21766499499999997, 0.20509596500000002, 0.251982875, 0.27675084, 0.18573409500000002, -0.0087679885185, -0.15577396500000001, -0.14647180499999998, -0.0528122605, -0.0388563815, -0.181473024, -0.39137597, -0.50892507, -0.45652748000000004, -0.27277897500000003, -0.03879415352, 0.1779485395, 0.33706788000000004, 0.43648156, 0.47437688], [-0.18494613999999998, -0.17029083499999997, -0.15826785499999999, -0.14210555, -0.11564378, -0.08839360449999999, -0.072293326, -0.063039901, -0.046623182, -0.02025508655, -0.001136487635, -0.0161580798, -0.0763256155, -0.15609937499999998, -0.207296325, -0.19737455, -0.134481207, -0.0620461595, -0.027162644500000003, -0.0490334115, -0.1119883705, -0.17553512000000002, -0.19501503, -0.151962405, -0.06953071999999999, 0.004432498549, 0.033116110000000004, 0.0153452655015, -0.0251096071, -0.0664690305, -0.0965742785, -0.105222523, -0.08356878350000001, -0.03593187955, 0.0108946612765, 0.0243782605, 0.0016647717305000001, -0.0207328745, 0.00099129766, 0.07937928999999999, 0.181924825, 0.248337675, 0.23110888, 0.132746834, 0.010568418505, -0.059003698, -0.041545499, 0.0215095647985, 0.0548989275, 0.02640249704, -0.0305183886, -0.062053882500000004, -0.047095306499999996, -0.007014339234, 0.029925159, 0.058654837, 0.0848920235, 0.10196281300000001, 0.09440691100000001, 0.0585687095, 0.0151204781025, -0.004131879335, 0.009391521264, 0.0264648345, 0.006563460731, -0.061835527, -0.14388301, -0.185367535, -0.15948636, -0.08307152150000001, 0.00023467224999999996, 0.04202042450000001, 0.011782696285, -0.08462111800000001, -0.20708332, -0.300861885, -0.324676265, -0.277206, -0.19279669, -0.10552681850000001, -0.025090793745000003, 0.0606542345, 0.17047735, 0.29566124, 0.36974435499999997, 0.322341505, 0.16793605450000001, 0.00029913761000000005, -0.0984295875, -0.116762485, -0.08958909999999999, -0.0487388445, -0.0034457354325, 0.050295238, 0.110138385, 0.15849521, 0.17407401, 0.147356815, 0.0874128215, 0.020748533533, -0.02253983145, -0.0293634645, -0.009679682218, 0.014232619600000001, 0.025424239, 0.028890785999999998, 0.044904481, 0.0807847395, 0.12040001500000001, 0.14176446, 0.138894755, 0.127612755, 0.1286473, 0.14720197000000002, 0.17291034, 0.18938887000000001, 0.18059764, 0.137948195, 0.0706079355, 0.012070329924000001, 0.002205126813, 0.053213764499999996, 0.13789039, 0.20861009, 0.228688365, 0.19664241000000002, 0.138904055, 0.078587393, 0.023846652234999998, -0.0129853989245], [0.0066911178235, 0.21438407, 0.375362925, 0.39875591499999996, 0.25099597500000004, -0.00037231809000000003, -0.219040925, -0.28120557, -0.1545308205, 0.086360457015, 0.317438085, 0.43841466500000004, 0.4172776, 0.29076703, 0.1281324465, -0.011180369875, -0.0919162015, -0.09425251550000001, -0.0204490139, 0.0869684265, 0.16020151500000002, 0.15460615, 0.079615031, -0.02012519132, -0.1021671505, -0.144176485, -0.14543326499999998, -0.122039665, -0.0927647155, -0.06433726199999999, -0.030358754, 0.020253556007000004, 0.094085331, 0.18615674, 0.273662745, 0.31473889499999996, 0.266105065, 0.1213600695, -0.06110728616, -0.184473725, -0.17950191000000001, -0.0479661333, 0.143723046, 0.302613955, 0.357065915, 0.293237005, 0.1546315565, 0.008126652724999999, -0.08921105000000001, -0.111096464, -0.0736274445, -0.0204107363905, 0.0189359927, 0.056242903000000004, 0.1212384915, 0.20799800000000002, 0.25076143, 0.16771872699999998, -0.058039706309500005, -0.338459935, -0.527415675, -0.52461609, -0.349962685, -0.1212139445, 0.042337883365, 0.0943621035, 0.058199162500000005, -0.0175109611075, -0.090193619, -0.13418391500000001, -0.14754883, -0.15039009, -0.164326485, -0.187157475, -0.19903842000000002, -0.19709525500000002, -0.20477584499999998, -0.23496893, -0.257811305, -0.22246649000000002, -0.112178221, 0.037241988245, 0.17187850999999998, 0.250277365, 0.24920489, 0.17051191500000001, 0.05038658422, -0.0545536393, -0.10376408100000001, -0.0955885625, -0.054050632, -0.0022204740540000003, 0.0497135775, 0.1037892245, 0.16691861, 0.23886701, 0.301605125, 0.321013625, 0.26675128000000004, 0.1332086855, -0.049054835985, -0.21601220999999998, -0.29595269, -0.2535741, -0.1117233795, 0.075069065965, 0.25382648, 0.380505135, 0.41936126, 0.351768515, 0.19742067, 0.0225277667745, -0.093774306, -0.111881333, -0.05059995475, 0.04252476860255, 0.13099002950000002, 0.19434242499999999, 0.211936625, 0.16425920000000002, 0.05220618206, -0.0911780635, -0.211092795, -0.26123402, -0.23469298500000002, -0.16720723499999998, -0.099745226, -0.0368773871085, 0.0524721363, 0.1918071]]","[[1.3349567500000001, 1.23377895, 1.15538655, 1.10473055, 1.0063849, 0.799320535, 0.52755387, 0.323771095, 0.303635665, 0.465887585, 0.683992205, 0.7902426699999999, 0.68822833, 0.41184448, 0.098466402487, -0.102729909, -0.135088435, -0.0762851625, -0.0719765625, -0.216525465, -0.482515205, -0.7445485, -0.8731066300000001, -0.83022689, -0.67912392, -0.5055903399999999, -0.354145585, -0.24542003, -0.20493308, -0.2398364, -0.32334944, -0.4250513, -0.52753295, -0.60518052, -0.61988917, -0.557598995, -0.45017066499999997, -0.349449915, -0.28790019, -0.26661657, -0.27707386, -0.32186792500000005, -0.40025583500000006, -0.47996160000000004, -0.508517435, -0.46202001000000004, -0.37257565, -0.295485995, -0.25136667, -0.21604122, -0.166451295, -0.10767427400000001, -0.0543840665, -0.012771807244, 0.023038723650000002, 0.0723719875, 0.15845407, 0.27129123499999996, 0.345372885, 0.3141426, 0.191929075, 0.0775566475, 0.06662538800000001, 0.169413815, 0.31822381, 0.42468257000000004, 0.42487632, 0.31532886, 0.17540628000000003, 0.12301069999999999, 0.20742297, 0.350080125, 0.401028145, 0.28319377, 0.0910597865, 0.0039642179205, 0.093025284, 0.2633078, 0.37723157999999996, 0.37858253499999994, 0.294334145, 0.16981323499999998, 0.03683378324, -0.078198684, -0.15639613, -0.20327842000000002, -0.243538605, -0.28543032, -0.29803836499999997, -0.24157356, -0.1251126555, -0.00958542072, 0.0665038745, 0.1391602975, 0.263224405, 0.41914007, 0.5132627949999999, 0.47287048, 0.31481511, 0.117798847, -0.052140387947999994, -0.17948638, -0.26909074499999996, -0.299138095, -0.23704183, -0.10364619550000001, 0.01279532396, 0.037524389500000005, -0.0044189128665, -0.01982617781, 0.046482791185, 0.1627564, 0.25286547, 0.25920715, 0.17577323, 0.05542114365, -0.015864043321000002, 0.009962948017499999, 0.086710198, 0.10906729650000001, 0.017888306475, -0.1351459385, -0.233858045, -0.20579878000000001, -0.07874414335, 0.05798054725, 0.133527895, 0.147204805, 0.155268625, 0.19264741000000002], [-0.12449524000000001, -0.13794027, -0.12801446, -0.0791734405, -0.019671620526, 0.0098741476, 0.004672427903, -0.000595039901, 0.0259418387, 0.0779653755, 0.11568209, 0.100852206, 0.036055163145, -0.0315301704, -0.0557224525, -0.0360576025, -0.0140062155, -0.028224685, -0.074053513, -0.1160737945, -0.131861065, -0.125240625, -0.11097712, -0.09886458749999999, -0.08681341149999999, -0.072409397, -0.0626024935, -0.0640353425, -0.080532699, -0.1157143215, -0.162529555, -0.195956895, -0.18407089, -0.11881537, -0.041078693, -0.0088381637, -0.0326129215, -0.066705, -0.0574213465, 0.013255794303, 0.110844498, 0.169541605, 0.14341506, 0.043726511395, -0.060852373, -0.089432215, -0.027992586905, 0.045525853500000005, 0.042693509350000006, -0.042182340855, -0.13643135, -0.167798215, -0.129062806, -0.070378641, -0.0321215255, -0.007041500078500001, 0.0259271238, 0.060467928500000004, 0.0669148435, 0.029050414139999998, -0.028296890800000002, -0.061535980500000004, -0.058364915499999996, -0.0480237715, -0.06542482399999999, -0.110080705, -0.14088352499999998, -0.1229292015, -0.066777429, -0.007452869378, 0.0304697385, 0.034113118500000005, -0.0066409995099999996, -0.090950029, -0.19137562500000002, -0.26083032500000003, -0.27273786, -0.245996535, -0.21138473000000002, -0.170596195, -0.11358687099999999, -0.0519071555, -0.006835431855000001, 0.01975879615, 0.0392401025, 0.043084039, 0.01073480933, -0.0506299615, -0.107544682, -0.131697485, -0.1159115285, -0.071247555, -0.0088149304985, 0.0687872925, 0.151107525, 0.213819105, 0.23637694499999998, 0.21458569, 0.163922915, 0.11850798, 0.106997745, 0.12554743000000002, 0.14568251, 0.14055904, 0.11053615, 0.093907812, 0.134076945, 0.23000495999999998, 0.33020866, 0.378071505, 0.36659318999999996, 0.341050975, 0.34000184, 0.35873667, 0.376503045, 0.38379053999999996, 0.3764357, 0.34858850500000005, 0.30644852499999997, 0.27390733, 0.266727585, 0.277051815, 0.29046389, 0.303281885, 0.322987125, 0.35368339, 0.377875945, 0.368419425, 0.32783632500000004, 0.29338199], [-0.38945512, -0.1926250725, -1.230437350000016e-05, 0.10556051, 0.072696693, -0.0763549704, -0.242336195, -0.30222947, -0.1942286045, 0.036138137965000004, 0.26980786, 0.39775941000000004, 0.39180344, 0.30590537, 0.215258385, 0.161082535, 0.142586845, 0.13933493500000002, 0.1261468, 0.08113696100000001, 0.00762880326, -0.0509027345, -0.0407231767, 0.043647711821349994, 0.142345471, 0.1836406, 0.14871761, 0.0759451575, 0.0150831969175, -0.0030486201845, 0.0349797103, 0.1247921875, 0.237047225, 0.32993285499999997, 0.375212895, 0.364940055, 0.30214379999999996, 0.19940854000000002, 0.08547352500000001, -0.00031214201000000013, -0.030144954999999998, -0.00914706671745, 0.02087937075, 0.0066818371233, -0.0716807645, -0.17721383500000001, -0.24829389, -0.25490082999999997, -0.212826725, -0.15647515, -0.11451689500000001, -0.096817708, -0.0886217555, -0.063521208, -0.0069576262075, 0.0715269795, 0.143762515, 0.17776056, 0.15002475, 0.06036125775, -0.056219326622899995, -0.147148965, -0.18269618999999998, -0.18004625000000002, -0.18311139, -0.21402209500000002, -0.25161712, -0.26431243, -0.24995112, -0.23006147, -0.21720189999999998, -0.20408114000000002, -0.17850664, -0.13369419000000002, -0.0683145575, 0.009480392265, 0.077927102, 0.111504935, 0.1001609415, 0.062489146, 0.036942627, 0.052992809, 0.11157404400000001, 0.18836409499999998, 0.24679406499999998, 0.248918765, 0.1704471, 0.025000960569999998, -0.1289285775, -0.22335235, -0.23156071, -0.181458015, -0.12298723, -0.08625702499999999, -0.065362099, -0.0342613907, 0.025333722179999997, 0.11029635900000001, 0.19932951, 0.258788075, 0.255324825, 0.185550145, 0.0982835495, 0.064695195, 0.11491636200000001, 0.21472224, 0.29863181, 0.313892335, 0.24624026000000002, 0.1258854295, 0.011132935485, -0.045486351999999994, -0.030092532300000002, 0.0272201924885, 0.08192984750000001, 0.107178295, 0.099448909, 0.0661679465, 0.0166462470795, -0.039239383, -0.0883746025, -0.116964785, -0.12207499999999999, -0.117224535, -0.117346555, -0.119508745, -0.10235604300000001, -0.040870320409999994, 0.0749261839, 0.222597725]]","[[1.4914141, 1.31710295, 1.20914165, 1.1636159000000001, 1.08074963, 0.859558385, 0.52918426, 0.27448168, 0.281649675, 0.515907535, 0.7196375949999999, 0.66667579, 0.36081623999999995, -0.0067564455950000005, -0.228337285, -0.215062115, -0.040363049625, 0.1102550705, 0.071467258225, -0.1719880035, -0.48323566, -0.6979570599999999, -0.749112205, -0.6930779850000001, -0.63324667, -0.6145915550000001, -0.605725105, -0.567425995, -0.503199445, -0.444256535, -0.42039294499999996, -0.45420182, -0.5442075200000001, -0.640326405, -0.67302489, -0.61890525, -0.5202072050000001, -0.44017958999999995, -0.409154355, -0.40955041000000003, -0.40810861000000004, -0.39942842, -0.39853243, -0.399248635, -0.37745175000000003, -0.331699695, -0.28831216000000004, -0.26553672500000003, -0.24873012, -0.207069345, -0.13148211999999998, -0.0458522922, 0.02049186101, 0.057748123500000005, 0.07929850150000001, 0.11807317449999999, 0.19583302, 0.28485298, 0.316443725, 0.24453986, 0.112344551, 0.040871518, 0.1182320535, 0.31052195, 0.50594371, 0.59095583, 0.483919415, 0.194890846, -0.10707820536, -0.17964317000000002, 0.055419120025000004, 0.399672895, 0.52934148, 0.275914472, -0.19466487123499998, -0.523906515, -0.515445735, -0.27450721, -0.02619997756, 0.09529804349999998, 