,experiment_id,num_time_steps_in_coordination_scale,fnirs_time_steps_in_coordination_scale,s1_d1,s1_d2,s2_d1,s2_d3,s3_d1,s3_d3,s3_d4,s4_d2,s4_d4,s4_d5,s5_d3,s5_d4,s5_d6,s6_d4,s6_d6,s6_d7,s7_d5,s7_d7,s8_d6,s8_d7,left_hemisphere,right_hemisphere,medial,average
0,exp_2022_09_30_10,120,"[0, 1, 2, 3, 4, 5, 6, 7, 8, 9, 10, 11, 12, 13, 14, 15, 16, 17, 18, 19, 20, 21, 22, 23, 24, 25, 26, 27, 28, 29, 30, 31, 32, 33, 34, 35, 36, 37, 38, 39, 40, 41, 42, 43, 44, 45, 46, 47, 48, 49, 50, 51, 52, 53, 54, 55, 56, 57, 58, 59, 60, 61, 62, 63, 64, 65, 66, 67, 68, 69, 70, 71, 72, 73, 74, 75, 76, 77, 78, 79, 80, 81, 82, 83, 84, 85, 86, 87, 88, 89, 90, 91, 92, 93, 94, 95, 96, 97, 98, 99, 100, 101, 102, 103, 104, 105, 106, 107, 108, 109, 110, 111, 112, 113, 114, 115, 116, 117, 118, 119]","[[0.5093567250000001, 0.508418975, 0.40704, 0.26342611, 0.159636845, 0.15154199000000002, 0.24663821500000002, 0.38708010000000004, 0.46625253, 0.40661682499999996, 0.23142037999999998, 0.046795455092, -0.0437509575, -0.0046961462050000005, 0.1259385265, 0.261444275, 0.30422144500000003, 0.204795715, 0.005091532095, -0.1835191, -0.25226101, -0.1667837785, 0.00203560496, 0.1174130705, 0.075359265685, -0.11275195895, -0.32536752, -0.416892505, -0.32678010999999996, -0.138072494, -0.0207502734, -0.08785736849999999, -0.300431365, -0.507727545, -0.56405693, -0.42883397500000003, -0.199998254, -0.054548446, -0.11536787999999999, -0.35425709499999997, -0.6179905250000001, -0.73658614, -0.6368682, -0.401602905, -0.21792511, -0.23386634, -0.443466935, -0.6959808649999999, -0.8104434349999999, -0.704042625, -0.450191335, -0.23492807, -0.2451896, -0.55920978, -1.07068303, -1.5027158, -1.60774265, -1.4005733, -1.099685405, -0.88019413, -0.76752661, -0.7011602499999999, -0.608633165, -0.4220118, -0.08708729500500001, 0.392284175, 0.91185988, 1.3087280000000001, 1.4835748000000002, 1.4759378, 1.41147965, 1.3899173999999999, 1.42590795, 1.4768132, 1.50334885, 1.4971486999999999, 1.463909, 1.40010415, 1.29749175, 1.1668988, 1.031553505, 0.89175742, 0.72670016, 0.547892145, 0.420910755, 0.39281264, 0.41043149, 0.36029473500000003, 0.19936186500000003, 0.020432874325000003, -0.03133295798615, 0.08203575095, 0.22858916999999998, 0.229699375, 0.0344278146535, -0.24751241000000002, -0.455494425, -0.49931584, -0.411982655, -0.321139135, -0.34868203999999997, -0.5063816950000001, -0.688204545, -0.763769485, -0.676770785, -0.482249405, -0.31097732, -0.274541635, -0.37505645, -0.501404195, -0.51913879, -0.380099965, -0.1639675135, -0.0142404455715, -0.0217844317995, -0.1620182835, -0.33271569, -0.435233425, -0.41924903999999996, -0.288989675], [0.30306939, 0.253264065, 0.231533035, 0.228591095, 0.20949089, 0.155538535, 0.09609322049999999, 0.086716771, 0.15502984, 0.268740075, 0.36172441, 0.39285703, 0.37210591, 0.33533299499999997, 0.30352749, 0.26881834, 0.21308673, 0.13096670400000002, 0.033913922255, -0.051590671, -0.089658248, -0.0693655145, -0.0340388985, -0.050250285000000006, -0.1409637435, -0.25017333, -0.27742866, -0.166676406, 0.03299815145, 0.201719475, 0.24403171, 0.159024929, 0.03073953630515, -0.047397776499999995, -0.0429670575, 0.008299601998, 0.05235553849999999, 0.065488331, 0.053363333500000006, 0.021403126903, -0.02952062925, -0.0860663255, -0.120408685, -0.112335879, -0.069738839, -0.017825753808, 0.03218483665, 0.093590044, 0.187324025, 0.31611245, 0.44459386, 0.519551325, 0.522486195, 0.485753465, 0.45472628, 0.45313458500000003, 0.48362239, 0.537683195, 0.5951945200000001, 0.6135019549999999, 0.52008323, 0.2518191815, -0.152953117105, -0.51794062, -0.64578744, -0.48494946499999997, -0.16922543, 0.09508937151499999, 0.16110809499999998, -0.0037841276149999997, -0.33081122, -0.7026718599999999, -1.015446635, -1.2112402, -1.2726671, -1.2005789, -1.001673635, -0.70491855, -0.387415835, -0.155494673, -0.071251084, -0.096674875, -0.12527085, -0.0761002805, 0.0464214668, 0.16784225500000002, 0.20228008500000003, 0.11928883150000001, -0.023613235325000002, -0.120163073, -0.097905012, 0.033403790025000005, 0.19957216, 0.31503622, 0.33061025, 0.254079385, 0.1403692065, 0.0535004965, 0.024783533000000003, 0.042758526000000005, 0.0760261725, 0.1000386745, 0.111282535, 0.125740815, 0.15891842, 0.202080555, 0.221232435, 0.18574551, 0.105837626, 0.033033148, 0.006228361599999999, 0.01332150565, 0.0232502715, 0.0268199165, 0.0270217605, 0.01837274845, -0.00500000272, -0.0322700665, -0.034590364, 0.013611841898999999], [-0.0364690115, -0.0380208035, -0.0115932588185, 0.0303352343, 0.049899132, 0.021000196696, -0.046560287650000004, -0.11697914400000001, -0.15512298, -0.14832406, -0.10563249450000001, -0.0400277334, 0.039177005698, 0.11949875, 0.188786025, 0.2425612, 0.27222215, 0.25509795, 0.175929345, 0.052865459154999996, -0.071322918, -0.1550772, -0.16778229499999997, -0.0956391925, 0.0400080708643, 0.183353725, 0.281881415, 0.31561868, 0.27819087, 0.1532438595, -0.055263878860000004, -0.28363664499999997, -0.43412341499999996, -0.44318730500000003, -0.32009904, -0.131191766, 0.04589812912, 0.166169875, 0.227748655, 0.246535385, 0.23702402, 0.21402692, 0.185244255, 0.141289165, 0.07354097600000001, -0.002277178146, -0.053449687499999995, -0.053904337499999996, 0.0027362702145, 0.095813486, 0.17840957, 0.20469758999999998, 0.16356549999999997, 0.0789218885, -0.01515762961, -0.091274818, -0.13326145, -0.138096065, -0.1150711315, -0.0838068315, -0.06828751350000001, -0.08303956550000001, -0.123704065, -0.17049018, -0.19486701499999998, -0.17483819, -0.1187593105, -0.064545689, -0.0468560745, -0.07026664099999999, -0.11328777649999999, -0.150680265, -0.17260573499999998, -0.184732335, -0.192224495, -0.19344822, -0.189842385, -0.18718256, -0.183678215, -0.170772965, -0.14571875, -0.11021268149999999, -0.061496686, 0.0015554570865, 0.0738024465, 0.15149390000000001, 0.226849375, 0.267971675, 0.22837216999999999, 0.0963154935, -0.07124278141, -0.17530729999999997, -0.146510136, -0.0002226812200000001, 0.1786914865, 0.30285409, 0.330260845, 0.267527505, 0.15871031, 0.0649845525, 0.0273450405, 0.04491362299999999, 0.0918752795, 0.143294295, 0.178924355, 0.17950035, 0.1343286475, 0.055985190500000004, -0.01574784067, -0.0358295125, 0.01453018516, 0.115130625, 0.219119205, 0.277733595, 0.26519575, 0.189909675, 0.087833979, 0.006859066442500001, -0.017326886649999998, 0.0155037499131]]","[[-0.0880485315, -0.052940264, -0.052058674500000006, -0.0775255855, -0.1196778985, -0.16737825, -0.19257796, -0.167273155, -0.10317451200000001, -0.050784725499999996, -0.0504839215, -0.09946439099999999, -0.16159295499999998, -0.1940965, -0.171542595, -0.1049633665, -0.041072094999999996, -0.0294657135, -0.086903915, -0.18841299500000003, -0.270387735, -0.25120552, -0.1027389591, 0.0809439026085, 0.15352275499999998, 0.071765125735, -0.08109019745, -0.191777635, -0.19602655, -0.10810598049999999, -0.005767637599999999, 0.022645154711500002, -0.07498295985, -0.290841025, -0.5424608049999999, -0.700094405, -0.6937671400000001, -0.5938619949999999, -0.5440765249999999, -0.625471735, -0.802321685, -0.96948286, -1.0278716, -0.94714654, -0.788607865, -0.650829055, -0.58368642, -0.546115165, -0.437259805, -0.237701195, -0.123721085, -0.24346873500000002, -0.2823519105, 0.44203742259500006, 2.0377416999999998, 3.3530786999999997, 3.0915113, 1.5731016299999998, 0.252375093875, -0.09482172444999999, 0.17352086682149997, 0.42251887, 0.43022731999999997, 0.345452625, 0.347215445, 0.470628795, 0.6436881750000001, 0.7748499150000001, 0.811599765, 0.76819164, 0.707777165, 0.675611275, 0.63932173, 0.515833, 0.284907475, 0.0518484565295, -0.063500472, -0.0723937995, -0.074013089, -0.11466087650000001, -0.16021974, -0.17929084499999998, -0.20207688000000001, -0.27467105, -0.37610653499999996, -0.43250795, -0.41793294000000003, -0.38762622999999996, -0.40525631500000003, -0.46556243, -0.493355575, -0.42480468000000005, -0.29444386, -0.208836465, -0.22619888, -0.30758620999999997, -0.38100688, -0.408516625, -0.39533982, -0.37349808500000004, -0.36677914, -0.343305345, -0.24052759, -0.071731578985, 0.05586014195, 0.0776204045, 0.037378563499999996, -0.006429236627, -0.054167499, -0.132689368, -0.235909945, -0.312553975, -0.31566771, -0.265368965, -0.233729225, -0.26494588, -0.338604425, -0.40326281, -0.412181115, -0.331930195], [0.28863397, 0.30187173, 0.2543085, 0.18176385499999997, 0.107531715, 0.042061707000000004, 0.0258397855, 0.0704544665, 0.131726485, 0.185147175, 0.24113696999999998, 0.29831473, 0.32578956, 0.29669826, 0.23904789999999998, 0.2074231, 0.199418625, 0.172236795, 0.114173981, 0.059500437999999996, 0.043805967, 0.0591395215, 0.049563116000000004, -0.01006954033, -0.064921752, -0.05935709250000001, 0.0005135098075, 0.082673594, 0.16745411000000002, 0.231673385, 0.24178657999999997, 0.18937342000000001, 0.108495688, 0.048268371, 0.016984737330999998, -0.02752075077, -0.0804723365, -0.08818831149999999, -0.066068315, -0.070409026, -0.0869328125, -0.063232493, -0.021432201499999998, -0.0329230705, -0.085051616, -0.06333924645, 0.088058691445, 0.261949845, 0.310040115, 0.227118375, 0.15439988, 0.187127705, 0.267641225, 0.30866514, 0.311571645, 0.311461155, 0.309460765, 0.29524959500000003, 0.284203905, 0.293015245, 0.272400385, 0.11445591223, -0.220161646, -0.5848941750000001, -0.7341969949999999, -0.555656625, -0.18691704099999998, 0.09546817122000001, 0.11037229650000001, -0.11153348747999998, -0.41628571999999997, -0.6747269, -0.847067675, -0.93411202, -0.92706587, -0.824987715, -0.653729765, -0.443284625, -0.23043004, -0.08019223950000001, -0.048542441500000005, -0.0874138275, -0.0609968107, 0.08493486508, 0.236338905, 0.246271455, 0.12152619599999999, 0.00652773727, -0.0205855345, -0.007232164770550001, 0.040306679, 0.184765089, 0.38163990499999995, 0.47212268, 0.38778163, 0.231758745, 0.14234987500000001, 0.13345967, 0.117843804, 0.053045891000000005, 0.0029665114320000002, 0.023335133350000002, 0.0755614875, 0.1189256005, 0.17115589, 0.23350796, 0.25379271, 0.19288716, 0.0911436005, 0.018236824145, 0.001278448599, 0.02771809775, 0.065016635, 0.0711777755, 0.0387384875, 0.016125697, 0.0385038515, 0.071737667, 0.077073147, 0.0773187975], [-0.050392598, -0.0524526675, -0.050603152500000005, -0.047115608499999996, -0.053433317, -0.079221107, -0.11170519300000001, -0.12569239, -0.108676368, -0.062137921, -0.00024786783, 0.049818162, 0.07403617800000001, 0.0838094665, 0.09106426150000001, 0.0970346345, 0.1014271025, 0.0973039895, 0.07045349, 0.0265831398, -0.0012278884175, 0.00541875535305, 0.024885215999999998, 0.037061425, 0.0665542615, 0.14942943, 0.269288565, 0.35498747999999997, 0.35053136, 0.26816730499999997, 0.16156109000000002, 0.076233982, 0.026663082, 0.0032300892965, -0.0003456117367, 0.0204155471, 0.0577678445, 0.0908649065, 0.10973513, 0.11350500999999999, 0.097149471, 0.062044954, 0.0201720820325, -0.02474404475, -0.076472523, -0.120740265, -0.130329525, -0.10331886300000001, -0.0654895685, -0.033357062, -0.0072590824350000005, 0.0067309202000000005, -0.0025294056615, -0.035142508, -0.078909652, -0.11533871, -0.12679363, -0.1105032125, -0.079753732, -0.04604825, -0.01479969515, 0.0068000546268, 0.014324595, 0.0084738554, -0.010583481861499999, -0.0394154675, -0.068468266, -0.08951632749999999, -0.09736666050000001, -0.088047096, -0.0645167935, -0.032948626, 0.0039516154944999994, 0.036444336, 0.04570866, 0.02473852345, -0.0121322992495, -0.045621261, -0.06539089449999999, -0.068340507, -0.058970782, -0.047643503999999996, -0.034408588, -0.00666282148445, 0.0388378615, 0.08879232849999999, 0.12818104, 0.143574065, 0.1205493465, 0.060894072, -0.005991209905, -0.044139277000000005, -0.0372076585, 0.0064574879975, 0.0604870075, 0.0960089285, 0.10351001650000001, 0.0915723, 0.0645288795, 0.01707464046, -0.049505439000000005, -0.1135731025, -0.14017858500000002, -0.113672001, -0.061737792, -0.0267877675, -0.020432172, -0.026179769999999998, -0.027143126, -0.016049188000000002, 0.001221580695, 0.0075663198, -0.006597242726, -0.0318362185, -0.049456349, -0.046246725499999995, -0.026923300499999997, -0.0072323652849999994, 0.0165201122, 0.0692313325]]","[[0.652216545, 0.6693972650000001, 0.592190185, 0.47078952, 0.37574816499999997, 0.35948353, 0.43986573, 0.57602381, 0.667783735, 0.623605505, 0.440905815, 0.208322035, 0.0385123496695, 0.006837399859999999, 0.12398612, 0.32157063999999996, 0.467278535, 0.44635401, 0.25401733, -0.00140728996, -0.18210784, -0.20951162, -0.1036187055, 0.029659021045, 0.054119208700000004, -0.09957225376500001, -0.35923719499999995, -0.546000575, -0.511434065, -0.273100355, -0.016852506545, 0.0585240865, -0.09810073284, -0.367501525, -0.55907392, -0.546341215, -0.35816847, -0.16358266, -0.138242285, -0.317511925, -0.574345085, -0.726777645, -0.667070655, -0.433757765, -0.19537822500000002, -0.138813485, -0.32845501, -0.645048605, -0.86406766, -0.822588035, -0.55509307, -0.29050749, -0.30927636, -0.75153099, -1.4623325, -2.0311659, -2.11644555, -1.76251785, -1.2972568999999998, -0.9618850299999999, -0.7544502049999999, -0.5630268749999999, -0.32800652999999996, -0.064229422635, 0.21001264549999998, 0.50853496, 0.829487795, 1.11175466, 1.27724805, 1.3054795000000001, 1.24982995, 1.19047505, 1.18712015, 1.2650271, 1.40790595, 1.55253025, 1.6247061999999999, 1.5914922000000002, 1.46089715, 1.27024125, 1.0739813, 0.902261205, 0.7471818450000001, 0.61648089, 0.56514731, 0.61950585, 0.692199935, 0.641377515, 0.42440582, 0.163378008, 0.043811212, 0.1378633005, 0.322635925, 0.38513137999999997, 0.2174285345, -0.09891581491, -0.3764087, -0.46199095, -0.339159535, -0.14590980050000002, -0.0739498565, -0.20591006, -0.449616275, -0.63438138, -0.6540812800000001, -0.5382895400000001, -0.41950383, -0.424970055, -0.57192754, -0.7486823, -0.798576075, -0.643205395, -0.34444489500000003, -0.053447281575, 0.09620965999999999, 0.050768710497000005, -0.170216147, -0.485677485, -0.7406574, -0.7650021250000001], [0.27374288, 0.25313848499999997, 0.281313125, 0.30627787, 0.26722952, 0.1576599085, 0.0500736315, 0.04046614, 0.159645348, 0.33978296, 0.471942205, 0.50059965, 0.45673164499999996, 0.40598346, 0.382067695, 0.36887532, 0.33104327499999997, 0.25024588999999997, 0.1393331885, 0.04403908300000001, 0.023142662, 0.07581610600000001, 0.09820095350000001, -0.018050380778, -0.24042967, -0.39797276, -0.34068313000000006, -0.079158935935, 0.22971898400000001, 0.412873915, 0.39849746, 0.240974705, 0.062752186845, -0.033916726, -0.02618370436, 0.03239937355, 0.0687372315, 0.053697014999999994, 0.00833771001, -0.0417832665, -0.08837709399999999, -0.12582564, -0.148473135, -0.15919305, -0.15978251999999998, -0.13523588, -0.058611813369999995, 0.08752967365, 0.29661989, 0.52952212, 0.70926708, 0.759495555, 0.6861162799999999, 0.597548315, 0.5993643550000001, 0.69204247, 0.8009826800000001, 0.86573571, 0.877454975, 0.831282135, 0.648222895, 0.2060301441, -0.477376895, -1.1336481550000002, -1.4098221499999999, -1.15360363, -0.55667024, -0.021010675625, 0.15437494000000002, -0.04597134838, -0.43662811500000004, -0.821427725, -1.1098002599999999, -1.3058032499999999, -1.4336989, -1.485071, -1.4198716999999998, -1.2106622, -0.892436865, -0.55783034, -0.29017212000000003, -0.10978938149999999, 0.01286645996, 0.1062812, 0.16733438499999997, 0.171142665, 0.10290543599999999, -0.0095613813785, -0.0897019575, -0.06339481965, 0.07657574825, 0.27407925, 0.460001605, 0.58032006, 0.60429627, 0.5325673400000001, 0.39635484, 0.24361623000000002, 0.1207926495, 0.059244815500000006, 0.0684471525, 0.13224876500000002, 0.215016625, 0.285445915, 0.33464422499999996, 0.36411218, 0.36630574000000005, 0.32811781, 0.25158922, 0.16464623499999997, 0.1001400025, 0.067916232, 0.0656491235, 0.095968619, 0.13995609, 0.14831829, 0.0942689485, 0.013831272581, -0.02638569, 0.010459245805], [0.0095110244, 0.00175832706294, 0.0227615449, 0.056300431, 0.0584490845, 0.001519615935, -0.095295352, -0.180909425, -0.20935749999999997, -0.16642997, -0.073144967, 0.0323277365, 0.1181126785, 0.16844814, 0.185416065, 0.182190355, 0.16298293, 0.11836730449999999, 0.054552895000000004, 0.00792638376865, 0.007035408708400001, 0.037526765499999996, 0.0693023035, 0.10201798999999999, 0.156218205, 0.23082782000000002, 0.29283198, 0.305956185, 0.25341916000000003, 0.1366348375, -0.023730609845, -0.184167435, -0.29412174, -0.31647087500000004, -0.24116369, -0.09929823600000001, 0.042621682175, 0.1279056625, 0.146750165, 0.12178684499999999, 0.081602608, 0.0533018115, 0.048441956499999994, 0.051630403500000005, 0.043948261999999995, 0.030091231, 0.029287726, 0.054069479, 0.1051646455, 0.16497325, 0.19156951500000002, 0.146281447, 0.03587837341925, -0.087772589, -0.17016244, -0.187619455, -0.15039397, -0.089008776, -0.0366674365, -0.0187310205, -0.048753806, -0.1222594635, -0.214538175, -0.290017065, -0.31405121, -0.27119338, -0.186809325, -0.116042663, -0.098000517, -0.12648814, -0.165187375, -0.18095477, -0.16489879500000001, -0.131729645, -0.103593686, -0.09652352349999999, -0.11672948999999999, -0.155478125, -0.186759555, -0.18650059500000002, -0.153910375, -0.102705675, -0.039791009100000004, 0.033819448358, 0.11590033350000001, 0.206056065, 0.29740110999999997, 0.358023005, 0.343563295, 0.244435505, 0.1101063775, 0.01882014645, 0.02327367995, 0.1153031195, 0.23485567499999999, 0.315610895, 0.322362635, 0.24855051, 0.1002804063, -0.09722685251, -0.275571665, -0.33360548, -0.222914995, -0.014328680160000001, 0.1612266445, 0.22483114, 0.18705756, 0.10983584649999999, 0.059018935499999994, 0.0749238815, 0.159017625, 0.274621145, 0.364813265, 0.38396255500000004, 0.32732222, 0.23266651, 0.15093588, 0.1165212, 0.131515, 0.16455562499999998]]","[[0.412226655, 0.41138309999999995, 0.330745985, 0.21903888, 0.14460763999999998, 0.15101993, 0.24057325, 0.36556701500000005, 0.440763675, 0.39789299, 0.235968485, 0.015387565955, -0.1792446675, -0.26556975, -0.1894328615, 0.03128551886, 0.28668054000000004, 0.43476762999999996, 0.40400996, 0.24156849000000002, 0.07211089849999999, 0.007782589800000001, 0.073283468, 0.196292495, 0.266883555, 0.21876971, 0.0768877037955, -0.05273216985, -0.051759836238499994, 0.11247143095, 0.343356405, 0.48474756999999996, 0.44111866, 0.23980129000000003, 0.007500269045, -0.11351436899999999, -0.06667130339499999, 0.07324079676, 0.16209656, 0.107072154, -0.060119141565, -0.21044039, -0.22527711, -0.10576205999999999, 0.01852769822, 0.00464793466, -0.176447462, -0.423944715, -0.59664152, -0.621391675, -0.548462925, -0.49940009, -0.5415804949999999, -0.639092585, -0.740553585, -0.86364279, -1.03243419, -1.1800089, -1.2179923, -1.14739355, -1.0282353899999999, -0.89034326, -0.716696575, -0.49182445, -0.233368415, 0.018065790385, 0.21493583000000002, 0.31521253, 0.305997625, 0.22094554500000002, 0.1265456365, 0.082908394, 0.11468101150000001, 0.220025585, 0.394545705, 0.62793421, 0.873764475, 1.042613135, 1.05726305, 0.925423985, 0.73251207, 0.55985036, 0.43635953, 0.373702365, 0.404655325, 0.536879155, 0.6844540550000001, 0.71166894, 0.56838082, 0.35792495, 0.252927415, 0.33350264500000004, 0.50807803, 0.6010644949999999, 0.510387195, 0.277227315, 0.038759514535, -0.0649154595, 0.02318470449, 0.23059373, 0.396023585, 0.39172946000000003, 0.22035032999999998, -0.00212586825, -0.143365173, -0.146730865, -0.06838006049999999, -0.0342003175, -0.132534586, -0.334297275, -0.5129767350000001, -0.541527415, -0.38868778499999995, -0.1410750905, 0.06358170034499999, 0.12864845, 0.041063316065, -0.1427271725, -0.323992285, -0.39884894000000004], [0.079007724, 0.0001890294025, -0.0052798612135, 0.02304231575, 0.0149913268565, -0.05555646, -0.13622294000000001, -0.146697505, -0.059194038857500006, 0.07601671204999999, 0.1782547, 0.205070435, 0.175277155, 0.135066715, 0.11373414999999999, 0.1054390335, 0.0785477135, 0.006063478265, -0.0993849145, -0.17512784, -0.152643225, -0.048257207620000006, 0.0133401401675, -0.07051457745, -0.23422314, -0.287186735, -0.115535005545, 0.197266781, 0.45973988, 0.5401321800000001, 0.438562, 0.25093475000000004, 0.0964439265, 0.0452462975, 0.0767913105, 0.106970715, 0.0662895755, -0.045959543959999995, -0.18243666, -0.30282716, -0.392237035, -0.44992497, -0.48920543, -0.53437936, -0.590709065, -0.624135195, -0.588397255, -0.46586231499999997, -0.27857641, -0.0854097393, 0.024156461454999997, -0.017009022966, -0.1747773435, -0.31905944, -0.33473239, -0.21932899500000003, -0.0820616455, -0.06608054349999999, -0.2291868, -0.441413095, -0.4269126, -0.00855094288, 0.64733414, 1.13362389, 1.2081223, 0.986528695, 0.728368155, 0.580655445, 0.538472985, 0.515906, 0.419035965, 0.221786875, -0.02191919962, -0.238817855, -0.38268333, -0.44752614, -0.45745363, -0.434194025, -0.38477012, -0.315587225, -0.22867109500000002, -0.1209294415, -0.0036653050649999995, 0.091715021, 0.12232490500000001, 0.056310456735, -0.08409786135, -0.21011753500000002, -0.21841708, -0.07761824279, 0.1315453335, 0.286247975, 0.32590828, 0.27121570500000003, 0.172773575, 0.070414908, -0.017635376078, -0.085563021, -0.11786802, -0.088275568, 0.00264082376, 0.1031341675, 0.15122797500000001, 0.138847595, 0.1136037, 0.11605123, 0.139400665, 0.157846705, 0.16891377500000002, 0.19420256, 0.246400735, 0.306799565, 0.344239915, 0.34763524500000004, 0.324516315, 0.28311766, 0.23083498500000002, 0.18469393, 0.16476157, 0.17068182], [-0.03417667635, 0.027278572799999998, 0.0914799795, 0.130465605, 0.10818198849999999, 0.01479343532, -0.11467080449999999, -0.22026159, -0.2551894, -0.21349881, -0.12891006000000002, -0.045480625000000004, 0.0122744530045, 0.0445476765, 0.066795643, 0.094456352, 0.124545885, 0.13843635, 0.133570025, 0.13413692, 0.152750325, 0.166839895, 0.158704285, 0.156657045, 0.20421171999999999, 0.30058662999999997, 0.39648637999999997, 0.43890288, 0.40251453499999995, 0.29456431, 0.15187480750000001, 0.0207542376485, -0.072333177, -0.12193825, -0.12537674000000001, -0.08789014249999999, -0.0381547125, -0.0075967668799999995, 0.003491389896, 0.02039672145, 0.064536119, 0.13594582, 0.20508006, 0.22225738499999997, 0.160925705, 0.05397160725, -0.0289044529005, -0.039483315, 0.015189879589499999, 0.077990196, 0.0760756105, -0.0224581839655, -0.1717933005, -0.281990175, -0.292522865, -0.20900423499999998, -0.087394713, 0.0018650230545499999, 0.0116702490935, -0.0550008725, -0.148013855, -0.20405002, -0.19165875, -0.132347286, -0.07496567950000001, -0.0580132255, -0.100982214, -0.200844265, -0.31546461000000003, -0.374739525, -0.33348146999999995, -0.211928205, -0.084294591, -0.027537019, -0.06787554850000001, -0.16841740000000002, -0.265321625, -0.30909368, -0.283181835, -0.21129959499999998, -0.146986395, -0.130153615, -0.14792665, -0.148868125, -0.0850350755, 0.06107692956, 0.261073885, 0.43758780999999997, 0.50208897, 0.417802625, 0.22794732, 0.031209448905000003, -0.0732185805, -0.046893853485, 0.0622768759, 0.16222271500000002, 0.1868023, 0.129647646, 0.036846552895, -0.02028559005, 0.01199064561, 0.1269236675, 0.24871342500000002, 0.28392562, 0.203924345, 0.07641854549999999, 0.003392090779, 0.03567213205, 0.153546348, 0.30308456, 0.43128055000000004, 0.49936584500000003, 0.486860645, 0.39981587500000004, 0.27970475499999997, 0.187371035, 0.16056538499999998, 0.19008869, 0.23723973, 0.26440515000000003]]","[[0.53677768, 0.5321952, 0.43438959, 0.277108125, 0.14574963999999999, 0.1294533, 0.27088441, 0.51257393, 0.7001808549999999, 0.690225755, 0.472368365, 0.1705008415, -0.0577314409, -0.108300316, 0.038159043755000004, 0.30155292499999997, 0.51095389, 0.50237269, 0.2564339125, -0.07456037120999999, -0.28579926, -0.26429304, -0.047146836675, 0.20863055800000002, 0.31205516, 0.1635036255, -0.15401474105000001, -0.418527195, -0.44235574, -0.236025735, -0.0006715707915000001, 0.054379841295, -0.11630408029, -0.38037585, -0.54578163, -0.5105808, -0.33888119000000005, -0.20534796, -0.254416995, -0.49205955500000004, -0.7870983300000001, -0.958920995, -0.8912303500000001, -0.614225115, -0.30426715000000004, -0.180443735, -0.353231575, -0.7281646399999999, -1.0549677750000002, -1.1051559, -0.845414305, -0.47983995, -0.33940888, -0.668979915, -1.3763734550000002, -1.98894675, -2.0521338, -1.59895645, -1.045366705, -0.69893505, -0.546549215, -0.42580610999999996, -0.23972263000000002, 0.0094661184, 0.304875065, 0.65369944, 1.031960635, 1.3438865000000002, 1.4855375499999999, 1.4393561, 1.2859842499999998, 1.1400439, 1.08595795, 1.1508669500000002, 1.30620145, 1.486684, 1.6174140499999998, 1.6337088499999999, 1.49910755, 1.2440516, 0.9588396849999999, 0.719480915, 0.55229041, 0.47582239000000004, 0.5223150950000001, 0.666261745, 0.7692239200000001, 0.683916435, 0.419987865, 0.166955165, 0.139074365, 0.37243709, 0.65959018, 0.7126460450000001, 0.41500127, -0.08907777235499999, -0.52316343, -0.672829465, -0.51454679, -0.22844377999999999, -0.076344391, -0.20388618749999998, -0.530509925, -0.831753895, -0.9144172399999999, -0.7448262750000001, -0.46597761499999996, -0.287557195, -0.31868881, -0.48592209500000005, -0.6101449449999999, -0.56074152, -0.35055792500000005, -0.10752901100000001, 0.026084054095, -0.02315168799, -0.23983327, -0.5317097900000001, -0.740310425, -0.7107620649999999], [0.41127038499999996, 0.194142635, 0.06785612099999999, 0.08973330600000001, 0.18875134500000001, 0.27104468, 0.298711135, 0.273063295, 0.22927677500000002, 0.23755162999999999, 0.3383833, 0.47727729500000005, 0.55486019, 0.53208614, 0.44766064, 0.362666755, 0.320332975, 0.30904971, 0.25915084499999996, 0.15259175, 0.0765093185, 0.0902715905, 0.1123846395, 0.00965846742345, -0.22165779400000002, -0.422062485, -0.421478665, -0.1942550175, 0.139824396035, 0.415636555, 0.51776544, 0.42645322999999996, 0.2145194925, 0.004251712935, -0.09963238199999999, -0.074346961, 0.011816424216000002, 0.0916510085, 0.155608895, 0.17281442, 0.089035321, -0.070081232255, -0.210367435, -0.27463908, -0.2758477, -0.241594005, -0.163711995, -0.02377854897, 0.1696113455, 0.38993333999999996, 0.57941697, 0.65811455, 0.592958915, 0.44536712, 0.32916595, 0.31627279, 0.391605055, 0.50174248, 0.607613775, 0.64707009, 0.48380907, 0.00044362197999999934, -0.69071861, -1.2330851, -1.3153977000000001, -0.9257238, -0.33267343050000003, 0.11519216928, 0.19999992, -0.07448631082, -0.52451494, -0.9102358700000001, -1.09858165, -1.13730985, -1.1396145, -1.13110625, -1.02610262, -0.75551641, -0.406792155, -0.149009313, -0.043949247500000004, -0.024720336500000002, -0.0058181640835, 0.058930795, 0.18194589, 0.31391995500000003, 0.34893009999999997, 0.21542661500000002, -0.02166517274, -0.18035009500000002, -0.133393913, 0.08980944577000001, 0.370563415, 0.579074505, 0.625157025, 0.51158574, 0.32178255499999997, 0.1461895045, 0.04528195249999999, 0.047154422499999994, 0.1434177495, 0.28528599, 0.38171950000000004, 0.35684363500000005, 0.245183015, 0.158060755, 0.14329051, 0.16146489500000002, 0.164188635, 0.13528362, 0.076642752, -0.009238358797000001, -0.0914776865, -0.11666551500000001, -0.079135836, -0.033246507, -0.0238540975, -0.035810539, -0.00548739205, 0.087310319], [-0.012935039806, 0.022756860049999997, 0.070565664, 0.14918108, 0.216515485, 0.207407425, 0.09290203135000001, -0.091952625415, -0.26318204, -0.33625418500000004, -0.274319975, -0.103550714845, 0.1101566053, 0.302001235, 0.445346385, 0.5498653800000001, 0.609077965, 0.576902035, 0.42627903500000003, 0.19932170249999998, -0.030431460295, -0.21047097, -0.29959629499999996, -0.25798049500000003, -0.09206298179, 0.1233458965, 0.305825305, 0.42576778, 0.47403893500000005, 0.40579189499999996, 0.1766066305, -0.18139723124999999, -0.5490826, -0.7790167, -0.7786229900000001, -0.56683316, -0.259216065, 0.017370983775, 0.201372505, 0.29505363, 0.3307978, 0.35579012, 0.405147045, 0.460481665, 0.454374895, 0.332655265, 0.11717951435, -0.0811832261, -0.1302801975, 0.007475213896500001, 0.22647220499999998, 0.36703536999999997, 0.34806747, 0.20146723000000002, 0.013004352078500002, -0.145938482, -0.25191593, -0.313543375, -0.33563620499999997, -0.32548657, -0.317886145, -0.355985865, -0.449568175, -0.56076603, -0.616392375, -0.5542753499999999, -0.38997151, -0.21637048, -0.11495647249999999, -0.0919020855, -0.10229896050000001, -0.10612064, -0.101850485, -0.11551043500000001, -0.156161665, -0.20192139, -0.24129524, -0.290536845, -0.354800195, -0.40833585499999997, -0.41899959000000003, -0.366536515, -0.24303069, -0.061157492035000004, 0.150774351, 0.37530061000000003, 0.599554015, 0.771390425, 0.80126846, 0.63670122, 0.32746752, 0.01294008032, -0.156633885, -0.1135138615, 0.089220509287, 0.32637984000000003, 0.47856638500000004, 0.48392422500000004, 0.364202595, 0.21099241, 0.11790885499999999, 0.117085645, 0.17904652, 0.256608715, 0.31412537, 0.3279419, 0.28340886, 0.19032208, 0.1009282575, 0.085297868, 0.17097135000000002, 0.312293355, 0.42286373, 0.432294245, 0.31753734, 0.10755999257000001, -0.120111912, -0.265374635, -0.267930685, -0.156171691]]","[[0.17261256, 0.20835079, 0.181244995, 0.1021352705, 0.021478312854000002, -0.0007364587225000001, 0.077158224, 0.237869715, 0.388837755, 0.421613195, 0.302134305, 0.09609178298, -0.0824964381, -0.135453, -0.020254907345, 0.22384138650000002, 0.47362125499999996, 0.58438364, 0.492450275, 0.264082115, 0.04939049738, -0.01697527911, 0.09594509450000001, 0.29081376, 0.40778476499999994, 0.34374822, 0.1316474215, -0.08128741454, -0.144208475, -0.0236301864, 0.17005429500000002, 0.280422955, 0.2325368, 0.07772776236000001, -0.0581248948, -0.071915998, 0.0387162949225, 0.17227378000000002, 0.203118895, 0.0813502698195, -0.129320354, -0.29618949499999997, -0.31349855000000004, -0.188114085, -0.04074892131400001, -0.010670853417, -0.1511273455, -0.403825765, -0.648055445, -0.7707217, -0.7246522799999999, -0.559927155, -0.419305495, -0.476494925, -0.796492635, -1.2215430999999999, -1.4758103500000002, -1.4370224999999999, -1.2313330500000002, -1.04698044, -0.944031185, -0.85841663, -0.716504425, -0.501307685, -0.23163303549999997, 0.07218375024, 0.375720075, 0.611583305, 0.7133728100000001, 0.6707623049999999, 0.541130395, 0.408690365, 0.336788235, 0.35877793500000005, 0.49199885000000004, 0.725267745, 0.98084069, 1.1259149, 1.0691975, 0.8449288699999999, 0.575728835, 0.36230797000000003, 0.236048935, 0.207945265, 0.303886575, 0.50164231, 0.66790834, 0.64315831, 0.41147615000000004, 0.151114692, 0.09348802900000001, 0.310395015, 0.6288163, 0.774803685, 0.61153488, 0.234099696, -0.129144577585, -0.27429929999999997, -0.13669108160500001, 0.16664703965000002, 0.40247978, 0.38467743499999996, 0.11049031598999999, -0.245958103, -0.46174129999999997, -0.41619222, -0.1704187545, 0.083904527795, 0.174845325, 0.071831485465, -0.113951317, -0.229060585, -0.19324853, -0.04489524188, 0.10803278499999999, 0.17116052, 0.10914420200000001, -0.050854132605000005, -0.223773775, -0.29577293], [0.36781339, 0.151925745, -0.00590536193, -0.0319769931, 0.045481672015, 0.134347521, 0.16305527, 0.127888295, 0.076976214, 0.059624793499999995, 0.098510002, 0.192238685, 0.314134945, 0.41200646999999996, 0.43415217, 0.363228225, 0.22632871999999998, 0.07879784, -0.027320797925, -0.0637386105, -0.0259838070075, 0.0486217345, 0.074584835, -0.01370717105, -0.180439297, -0.29707888, -0.2481948, -0.03644895605, 0.22381797599999997, 0.40670710499999996, 0.454337465, 0.386485445, 0.26824055, 0.16943395500000002, 0.13125693, 0.14362418, 0.15789048, 0.13807571, 0.08577433400000001, 0.010076780515, -0.08874430650000001, -0.19816588, -0.2848731, -0.31600867, -0.2829269, -0.203106285, -0.10516265949999999, -0.014949842217, 0.057232846500000004, 0.11735234200000001, 0.16750663, 0.19662617000000002, 0.19578456, 0.17277135999999998, 0.151999985, 0.155491945, 0.183741805, 0.213365445, 0.20223813, 0.107570503, -0.08142876971, -0.31506260999999997, -0.49337619, -0.5270185949999999, -0.38460067000000003, -0.103542948005, 0.202468219, 0.38422900499999996, 0.342811485, 0.084758287785, -0.2887613985, -0.642760225, -0.87960797, -0.97479839, -0.9514927299999999, -0.8285761600000001, -0.610801635, -0.33407587, -0.09143187275, 0.02052072244102, -0.008923434977, -0.0844912285, -0.090912358, 0.00639764372, 0.1498123105, 0.248614785, 0.239581685, 0.1251942995, -0.021581075954999997, -0.0996855395, -0.050802588975, 0.1031007655, 0.28147422, 0.39330247999999995, 0.38092877999999997, 0.246987335, 0.052990807476, -0.11278901499999999, -0.178979945, -0.121726271, 0.025888576424999997, 0.186139755, 0.28252692, 0.289448405, 0.236799815, 0.177477205, 0.15323304000000001, 0.17789418, 0.240764165, 0.31590098, 0.36587930999999996, 0.356874335, 0.28768442499999997, 0.19305451999999998, 0.11153761649999999, 0.06337330749999999, 0.0555565355, 0.08577267300000001, 0.14032422, 0.198496145], [0.043121343735000005, 0.16338757, 0.21420917500000003, 0.23054180999999999, 0.21838459, 0.150179859, 0.009304345870000001, -0.1732599125, -0.324486435, -0.37889506500000003, -0.326687205, -0.20620303499999998, -0.05899786506, 0.092287925, 0.238170055, 0.36838214999999996, 0.456908705, 0.465989945, 0.37939086000000005, 0.223322155, 0.0459540035, -0.1048181435, -0.177877455, -0.1296196895, 0.029176640485, 0.218631845, 0.356586125, 0.426061725, 0.44716499, 0.40876809999999997, 0.2737981, 0.03724156358, -0.247293925, -0.488188175, -0.6022507149999999, -0.56528841, -0.42554306500000005, -0.25441713499999996, -0.091312558, 0.05762161152, 0.19846146, 0.33960092000000003, 0.47168755500000004, 0.54647417, 0.501066405, 0.318657545, 0.06224082866, -0.153746244, -0.234756845, -0.17381649500000002, -0.057567504400000004, 0.0089512740655, -0.0115836809535, -0.07896882350000001, -0.13253884, -0.14319613, -0.124599215, -0.109631525, -0.11438791999999999, -0.125656655, -0.124304485, -0.111467545, -0.108904385, -0.13749746999999998, -0.19339343, -0.252522065, -0.30024798, -0.334360335, -0.339927615, -0.291988425, -0.19093759, -0.07566880549999999, 0.00193297738, 0.011952593758, -0.0349388004, -0.10383381650000001, -0.17193283999999998, -0.23777255, -0.299957045, -0.348252745, -0.372302415, -0.36156396999999996, -0.301295865, -0.1829321, -0.006355054691499999, 0.23013623500000002, 0.513281465, 0.77948795, 0.923565665, 0.863849, 0.608205985, 0.26911588, 0.0046482276114999995, -0.0845693825, -0.011817114205, 0.1380276675, 0.285139, 0.379760435, 0.38688013499999996, 0.28798893, 0.1132339775, -0.045274875326000004, -0.10760583900000001, -0.10022540299999999, -0.11145369949999999, -0.16237791000000001, -0.189447795, -0.134272414, 0.005020733595, 0.194925715, 0.395092765, 0.559216845, 0.629131605, 0.5549732199999999, 0.34008287000000004, 0.059166435005000004, -0.17399760549999999, -0.259480765, -0.16668378700000003, 0.039396669764999996]]","[[0.45501166499999995, 0.515163175, 0.52560667, 0.47290921500000005, 0.39112847, 0.34305305500000005, 0.387029725, 0.516129205, 0.63209005, 0.61803102, 0.44389555999999997, 0.1882453515, -0.022662613457499998, -0.0792618545, 0.0668009746505, 0.36061454, 0.63860214, 0.7157070799999999, 0.51811686, 0.13908398791999999, -0.2240845305, -0.39114017500000003, -0.30252949, -0.057828552425, 0.14003721049999998, 0.12387171849999999, -0.110051743185, -0.39806676, -0.54324407, -0.47811993999999997, -0.31066157, -0.21408268, -0.27514115499999997, -0.435966165, -0.552248515, -0.512545335, -0.32686546499999997, -0.122034952, -0.048670823, -0.16633223900000002, -0.398669965, -0.583130685, -0.58037588, -0.381812205, -0.13229648600000002, -0.032359549, -0.1876377475, -0.525022295, -0.842164615, -0.9411657200000001, -0.7549222, -0.412309255, -0.212375745, -0.45688286499999997, -1.14969674, -1.860134, -2.0856402, -1.78278065, -1.3416796500000001, -1.0922099, -1.0357475, -0.992824695, -0.8392029449999999, -0.568878315, -0.21424573049999998, 0.21339307321, 0.68877829, 1.12769292, 1.42182725, 1.5130087, 1.42786775, 1.25658275, 1.1075195, 1.0721192000000002, 1.1959876, 1.4443948, 1.69482965, 1.7976944499999998, 1.6753278, 1.3778108, 1.0299513249999999, 0.7255478399999999, 0.50061289, 0.3957349, 0.469136575, 0.6923607850000001, 0.884685335, 0.843316655, 0.54607363, 0.19031336499999998, 0.028801219, 0.1519609365, 0.40450611999999997, 0.52026398, 0.35265917, -0.023979577825, -0.39624213500000005, -0.5548756, -0.41834127000000004, -0.10387580129, 0.128284651, 0.06583118286999999, -0.286640817, -0.714302275, -0.95215479, -0.8747633399999999, -0.579807465, -0.296837305, -0.20021582500000001, -0.289639895, -0.42049628499999997, -0.43624158, -0.28925147, -0.056059910139999995, 0.138825105, 0.198557575, 0.08211206787, -0.17931156699999998, -0.455775035, -0.56309131], [0.1574049595, -0.008973609145, -0.12189093599999999, -0.12895785999999998, -0.0660659445, 0.0035008820645, 0.028753375499999997, 0.0022974682665, -0.031429018499999996, -0.0233067002, 0.031547581309999996, 0.10911769850000001, 0.19238369, 0.262163495, 0.2820886, 0.22399769, 0.11550044200000001, 0.0221331675715, -0.02099773765, -0.0239816575, -0.002438335058, 0.039039779499999996, 0.0871221705, 0.114398505, 0.096563494, 0.0374674914, -0.02326989173, -0.036180955, 0.0250667877845, 0.145009103, 0.26754, 0.326401895, 0.296961015, 0.20703054999999998, 0.0988826675, 0.006202176685500001, -0.058155568500000004, -0.097729567, -0.109534345, -0.08629224649999999, -0.036300728649999996, 0.014232012305, 0.041609090999999994, 0.05058784400000001, 0.06738245, 0.1011772175, 0.11871091, 0.0937581375, 0.05981013650000001, 0.0686555725, 0.136556498, 0.24598163499999998, 0.35452586500000005, 0.40964483, 0.39393244000000005, 0.33248077000000004, 0.262672835, 0.22904018, 0.25906633500000004, 0.31884247, 0.31820844000000004, 0.189018315, -0.04857720353, -0.297219155, -0.43920143500000003, -0.39247112, -0.17349360749999998, 0.08709734499999999, 0.22844052, 0.1593565395, -0.103617062875, -0.46354729, -0.80986232, -1.06033289, -1.15679525, -1.068876465, -0.81076802, -0.45291886499999995, -0.106473142615, 0.128188902, 0.205574665, 0.135725149, -0.017604353055, -0.14993328, -0.1809902, -0.1217661055, -0.0475247005, -0.00905916095, -0.01677945195, -0.077081073, -0.168369545, -0.2261974, -0.20613689999999998, -0.125010484, -0.039806061000000004, -0.00625287205, -0.041378414499999995, -0.111432245, -0.15111168, -0.108561972, -0.0003088191549999999, 0.09301043999999999, 0.11596949499999999, 0.09918202000000001, 0.10404029899999999, 0.14542051, 0.199045955, 0.254870695, 0.31613487, 0.361415725, 0.36552933000000004, 0.33747815000000003, 0.304959475, 0.287380985, 0.27810426, 0.248467355, 0.191581055, 0.13982917, 0.12726099, 0.15977296000000002], [0.021870024520000003, 0.21156855, 0.335554765, 0.40630913999999996, 0.419916655, 0.344027915, 0.15596933500000001, -0.10775223953999999, -0.34407386, -0.448907465, -0.39473716000000003, -0.23293363500000003, -0.034860430475, 0.1515723625, 0.310790505, 0.447382975, 0.556081205, 0.60001386, 0.530938975, 0.33043248, 0.031275212246500005, -0.28128267, -0.48865515000000004, -0.5011785400000001, -0.33326369, -0.09794305784, 0.0943436705, 0.214734725, 0.28132458499999996, 0.277171505, 0.1497013085, -0.11337978285, -0.440694685, -0.7099335550000001, -0.822858705, -0.76438778, -0.5970710499999999, -0.39706849499999997, -0.20413726000000001, -0.028955137593, 0.12729634150000002, 0.27181228, 0.40593366000000003, 0.497616655, 0.48722214, 0.33212385, 0.05358193166, -0.24860474, -0.4395243, -0.43700713, -0.2699812, -0.047990951255, 0.1232967105, 0.19839041500000001, 0.191783775, 0.146674375, 0.099551336, 0.0640383565, 0.041865582000000005, 0.033913205, 0.03527959, 0.0315212465, 0.005376233282, -0.050419024, -0.1187418465, -0.161880305, -0.15061743, -0.08785519000000001, -0.00861436604, 0.037372974, 0.016120268689999998, -0.063363739, -0.15618468, -0.217106045, -0.22654928500000002, -0.19721054500000001, -0.16589149, -0.163970385, -0.18688567, -0.20349571, -0.18786032500000002, -0.1277966965, -0.021937797285, 0.1097255265, 0.23489949, 0.34589978000000005, 0.465097955, 0.59618865, 0.6838672, 0.638311125, 0.41144989000000004, 0.06192199116, -0.26296913, -0.428810935, -0.40151000000000003, -0.242088305, -0.04420614077, 0.11379961050000001, 0.19017071000000002, 0.18324054, 0.115440463, 0.012975284823, -0.09972750650000001, -0.194491185, -0.24327734, -0.22981779500000002, -0.15652703499999998, -0.04191898076, 0.0962368945, 0.256570555, 0.44672942, 0.656266435, 0.829340235, 0.866214665, 0.6854258, 0.313208377, -0.09435746977000001, -0.33989898, -0.32227974000000004, -0.1048667629435]]","[[0.501450025, 0.5481725749999999, 0.5182373100000001, 0.45654002499999996, 0.39074304, 0.33526378, 0.33465999500000004, 0.42967141, 0.567984995, 0.62419331, 0.532916015, 0.3528275, 0.20095068000000002, 0.16415254, 0.259893365, 0.42969392, 0.56431337, 0.57488014, 0.453000275, 0.2444025, -0.016243155540000002, -0.29766715, -0.519851535, -0.60683421, -0.60938276, -0.664724065, -0.821776715, -0.983916255, -1.03026895, -0.9496183, -0.829881235, -0.73551333, -0.644121445, -0.5267216100000001, -0.434437075, -0.414330645, -0.395141585, -0.29381254, -0.161891955, -0.137058965, -0.294628875, -0.565013345, -0.752163925, -0.658842755, -0.28340705, 0.09685883095999999, 0.138305629, -0.22095730174, -0.689706565, -0.91539401, -0.810845675, -0.57988189, -0.46950788000000004, -0.546272755, -0.68110879, -0.76122741, -0.801069915, -0.7739126199999999, -0.5921802199999999, -0.266054208, 0.073450643103, 0.313994475, 0.455086425, 0.566553245, 0.71954884, 0.96182187, 1.3013846, 1.6776555, 1.96922545, 2.07171425, 1.98886495, 1.8407784, 1.7632123999999998, 1.7647673499999998, 1.6844857500000001, 1.3634984, 0.880144645, 0.48360782999999996, 0.27922952500000003, 0.165471305, 0.035582101943, -0.1159009625, -0.24955441, -0.329085075, -0.315958265, -0.20962636, -0.102037251, -0.1163957775, -0.28674893, -0.51808626, -0.649772475, -0.578738795, -0.36770285999999996, -0.20978689, -0.24211583, -0.42853424500000004, -0.61907993, -0.673973055, -0.555329855, -0.35887449, -0.24501704, -0.29203878, -0.42785654, -0.52549516, -0.521627535, -0.43281728999999997, -0.31703976, -0.23317860499999998, -0.193313965, -0.14552218, -0.035822817835, 0.12316909499999999, 0.29598732, 0.498281425, 0.741655265, 0.9209153600000001, 0.83220816, 0.368848321, -0.268179141179, -0.661069935], [0.1489472775, 0.005363022574500001, -0.086616862, -0.076910656, 0.00457543084, 0.08232982700000001, 0.103403009, 0.071631116, 0.0293649345, 0.0175882285, 0.051499449, 0.12375372999999999, 0.21154098000000002, 0.27573208, 0.27815898499999997, 0.21278772499999998, 0.1143065765, 0.03279387005, -0.0010112025615, 0.014471182617, 0.06636821949999999, 0.1326907715, 0.177805925, 0.16272291, 0.07436599049999999, -0.043186311845, -0.099125306, -0.027911183545, 0.14214308850000001, 0.302613385, 0.34859983, 0.254909115, 0.0904212145, -0.036261125551500004, -0.0566368425, 0.01527665621, 0.1054075115, 0.14287716, 0.1047156395, 0.011591202250000002, -0.091795968, -0.1523934, -0.13676174, -0.059171272500000004, 0.026200705987, 0.066373396, 0.045766346, -0.009626210536, -0.0528413145, -0.044708661000000004, 0.019878813085, 0.10898394850000001, 0.17801074, 0.195953495, 0.15981628, 0.09963094249999999, 0.0625395885, 0.0781584325, 0.13383985, 0.17285332, 0.123427104, -0.040987490625, -0.2568626, -0.39754394, -0.35716096999999997, -0.1301684713825, 0.16772517, 0.36767893, 0.35591972499999996, 0.131973918055, -0.2048832985, -0.520190995, -0.723062565, -0.7927843, -0.746290725, -0.60671593, -0.40206151, -0.1806449535, -0.015162036389, 0.0377392945, -0.010828659295000001, -0.08884978650000001, -0.11697005, -0.054232179141500005, 0.0817550509, 0.219018145, 0.27068525, 0.20223912, 0.06472862632, -0.0488201979, -0.0753720485, -0.0093928818, 0.10720212650000001, 0.20352722, 0.21603144, 0.13200832699999998, 0.0014566138450000001, -0.096708978, -0.10873988600000001, -0.03920502544, 0.06020392100000001, 0.13198768, 0.14939987500000002, 0.123746965, 0.0865732705, 0.065081711, 0.06864136700000001, 0.09375291799999999, 0.132223995, 0.17217626, 0.19171997999999998, 0.1617202, 0.0756556825, -0.0269230979276, -0.089213449, -0.086709651, -0.0341318979845, 0.0397130256, 0.1051128175, 0.138596105], [-0.00720490885, 0.0021825215971, 0.0091819791, 0.012792129999999999, 0.00821537525, -0.0072634102668, -0.030046839, -0.0538195175, -0.071297735, -0.071683726, -0.0503814135, -0.0196521837, 0.0068976182575, 0.029128093, 0.051589867, 0.0758034425, 0.098353597, 0.1045755445, 0.0777267905, 0.025704391759, -0.018464764895, -0.033864856, -0.030354595999999998, -0.018691625700000002, 0.0163879667445, 0.09334527899999999, 0.19545838, 0.270835475, 0.27780317, 0.22052398499999998, 0.13365333100000001, 0.05180760399999999, -0.007435292148, -0.04175096650000001, -0.049673802499999996, -0.030448583999999997, 0.002375563192, 0.029606697, 0.0466555795, 0.058182269499999995, 0.065422136, 0.0690005885, 0.066173167, 0.043464147, -0.006857420159, -0.065518974, -0.101636475, -0.1055468975, -0.08784275550000001, -0.0576223925, -0.02169320505, 0.0071816381135, 0.0159509885, -0.00027534903664999997, -0.036906363500000004, -0.078516295, -0.1037227605, -0.10061111800000001, -0.0728569745, -0.0314708238, 0.011483469071500002, 0.046295016999999994, 0.068891972, 0.0758060335, 0.060050282499999996, 0.02011795603, -0.0332527814, -0.08263833050000001, -0.11279787499999999, -0.117709915, -0.1024481015, -0.0736067155, -0.034261031000000004, 0.0062131354335, 0.0329892605, 0.039886115, 0.0303779295, 0.0089181337, -0.019162638450000002, -0.045370723999999994, -0.062536319, -0.0667645595, -0.054614429500000006, -0.027278294, 0.0055784798945, 0.037660479499999996, 0.0747207765, 0.11899477900000001, 0.15350619, 0.15465131, 0.115396111, 0.053259044500000005, 0.0002918941160000001, -0.018236145500000002, -0.0015344969089999998, 0.032212336, 0.0664128395, 0.0923962545, 0.0977125385, 0.062344211, -0.0192543534295, -0.1115973915, -0.158408065, -0.14148421, -0.09599617049999999, -0.0609464775, -0.0429316795, -0.029834478999999997, -0.01167624053975, 0.016322625475, 0.053732942, 0.08979958249999999, 0.1024866425, 0.073607033, 0.012726002036999999, -0.043620387499999996, -0.0648434975, -0.0481410845, -0.008437465851, 0.0353823675]]","[[0.40001952500000004, 0.42906162000000003, 0.39836316000000005, 0.32323688500000003, 0.253805045, 0.247838225, 0.340522365, 0.50260516, 0.635223725, 0.637712775, 0.48837433500000005, 0.25622936500000004, 0.0505496932335, -0.031863294, 0.054510957334, 0.26653419, 0.47141398, 0.525953055, 0.382019255, 0.11573031136499999, -0.1347140005, -0.257573655, -0.22318570999999998, -0.094239452, 0.004986154255, -0.036912850786, -0.231160685, -0.463506545, -0.581827255, -0.528894485, -0.38409611499999996, -0.2771301, -0.28045267, -0.37449615999999997, -0.47511207499999997, -0.49358938, -0.40418346, -0.26799828000000003, -0.18017144, -0.191886455, -0.28084722, -0.372186605, -0.38867093500000005, -0.307186295, -0.17519604, -0.0704960745, -0.0492915305, -0.118573862, -0.23097311999999998, -0.30701079, -0.286721735, -0.183215775, -0.111041305, -0.242230515, -0.63799101, -1.10181996, -1.32010315, -1.1999241999999999, -0.9495927550000001, -0.8013360749999999, -0.786155485, -0.78941945, -0.716146435, -0.55221022, -0.30885566000000003, 0.0239255145565, 0.44192167, 0.8763630499999999, 1.2146402, 1.3740477000000002, 1.3525642500000001, 1.2143198, 1.035979685, 0.879062955, 0.802319715, 0.853808635, 1.007866175, 1.1365148, 1.10104635, 0.87309751, 0.5406991999999999, 0.221185732, 0.0050246059099999995, -0.039910259885, 0.1169270711, 0.399311705, 0.612148975, 0.57964988, 0.30525489, -0.027277932209999998, -0.202906935, -0.1378363135, 0.06782616198500001, 0.22187400000000002, 0.19141940999999998, -0.01680660204, -0.277590185, -0.42050245500000005, -0.33292569, -0.057330027335000006, 0.217216832, 0.300479785, 0.14916145249999999, -0.120190839372, -0.33169897, -0.36893543, -0.243592365, -0.0722000917, 0.021513938285, -0.0053123145843365005, -0.094695339, -0.143575855, -0.09514323, 0.022972456505, 0.1391497675, 0.18720108, 0.119635484, -0.076329094945, -0.332288875, -0.49968822], [0.02081848251, -0.119584763, -0.24656651, -0.27594845, -0.203034655, -0.0858408595, 0.015357874718999999, 0.074904325, 0.086598019, 0.056844765, 0.026073089, 0.056211762, 0.162769635, 0.28581826, 0.352182325, 0.33843406000000004, 0.26750319499999997, 0.17046146, 0.068077785, -0.0039425150655, 0.007841958211, 0.11104708799999999, 0.240626515, 0.30809308, 0.261613585, 0.147284053, 0.08132787699999999, 0.1216014055, 0.22461696499999997, 0.32710372, 0.39759743999999997, 0.41436205000000004, 0.362641145, 0.27462488, 0.21804922000000002, 0.224182165, 0.23860976, 0.181792335, 0.0651624635, -0.01786252739, -0.031642339, -0.040864816, -0.0884928715, -0.12257094500000001, -0.088298633, -0.0340655745, -0.048074974, -0.1155216715, -0.132305685, -0.0534433370845, 0.07058838275, 0.18706998, 0.277732925, 0.32410450500000004, 0.29206428, 0.179770775, 0.057840001, 0.01013911605, 0.042427320000000004, 0.1020853795, 0.14120026, 0.121621561, 0.015495641360000001, -0.146932871, -0.249850335, -0.1841947835, 0.035835289565, 0.28286254, 0.40332996, 0.29048784, -0.054186412885, -0.5184069, -0.951331655, -1.2259712999999999, -1.27932395, -1.1411045, -0.89786282, -0.6154619499999999, -0.335373765, -0.1182174165, -0.0293425755, -0.089776799, -0.22949430499999998, -0.29445705, -0.1622646795, 0.10632675545999999, 0.30463916999999996, 0.302321635, 0.1608128655, 0.019451147749999998, -0.0503759885, -0.0468608815, 0.009265574353, 0.070811682, 0.088122115, 0.05564113, 0.0051739064680000005, -0.023322822, -0.0012865849529999998, 0.06878348299999999, 0.15153104, 0.19906237000000002, 0.196558755, 0.18018864, 0.18541928500000002, 0.20342703499999998, 0.21103495500000002, 0.212818905, 0.23829514499999999, 0.314784005, 0.42139447500000005, 0.482038715, 0.43891288, 0.308777405, 0.15452262449999998, 0.032095140692499996, -0.0127707025, 0.0382019860275, 0.1335440855, 0.19065599500000002], [0.0458813015, 0.10392186349999999, 0.15618308, 0.20479998, 0.24443367, 0.25317085, 0.202110555, 0.08317507795, -0.069043933145, -0.19464136499999998, -0.25240441, -0.23830884000000002, -0.16906298, -0.0680406775, 0.041380049795, 0.1436751245, 0.223875885, 0.25636382, 0.21907131, 0.1184095535, -0.0167118134686695, -0.150335203, -0.240484965, -0.25212787999999997, -0.183332935, -0.06644375615, 0.060079500374499994, 0.16943097000000001, 0.23785281000000003, 0.23214165, 0.12833947099999998, -0.056623077367, -0.265507405, -0.430276255, -0.505229615, -0.48296583, -0.38896203999999995, -0.26045411, -0.127552006, -0.009215013853500001, 0.0857193745, 0.15341448, 0.18818835499999997, 0.18452203, 0.148692345, 0.0969262885, 0.0380614415, -0.0242203833545, -0.0691479965, -0.063439087, 0.0013007830349999999, 0.09435769499999999, 0.16940969, 0.19049338, 0.14726893, 0.061425788499999995, -0.02061952292, -0.0529450265, -0.018233179485, 0.06312433249999999, 0.15056445, 0.2127446, 0.23729209, 0.216612655, 0.1442185265, 0.0350181535875, -0.066202311, -0.11601208, -0.11420529500000001, -0.101929305, -0.11416704, -0.143828615, -0.15830353, -0.141488735, -0.10560682849999999, -0.073304246, -0.064980165, -0.090942759, -0.14260375, -0.19786764, -0.23344019500000002, -0.22919659, -0.176558035, -0.09419165700000001, -0.012846854314000001, 0.0659488555, 0.16947692, 0.302220455, 0.41503515, 0.43854627999999996, 0.341432195, 0.156753195, -0.03833754968, -0.166612125, -0.188994775, -0.1205288865, -0.011222209810000001, 0.09060108850000001, 0.154949585, 0.16605205, 0.118524902, 0.020402235175, -0.099656758, -0.19805971499999997, -0.244253325, -0.233688575, -0.17916473, -0.10188501450000001, -0.0150292278655, 0.0882314345, 0.21728907, 0.3553555, 0.451472225, 0.44842387, 0.33087844, 0.145276513, -0.026596832204999997, -0.1112173655, -0.08157044349999999, 0.026353088565000002]]","[[0.313045885, 0.32328112, 0.286605125, 0.20716110000000001, 0.1117339695, 0.0403875445, 0.039024793, 0.12261954550000001, 0.23713618, 0.28916969000000003, 0.22776218499999998, 0.080884720315, -0.07854129075, -0.176576345, -0.163342555, -0.03983493969, 0.12281301149999999, 0.21910201999999998, 0.18695566, 0.045046666975, -0.13843445000000001, -0.289448005, -0.35413347500000003, -0.336004175, -0.31229772, -0.368545135, -0.511005115, -0.6508353, -0.68245175, -0.577243615, -0.39533812500000004, -0.22584521999999999, -0.135623035, -0.15634241, -0.26960312999999997, -0.38591887, -0.39956985, -0.30101801, -0.193577195, -0.188232205, -0.300607845, -0.438342435, -0.476030745, -0.36222926, -0.166559956, -0.012198346385000001, 0.029135723000000002, -0.02751750548, -0.121749397, -0.22575800999999998, -0.355062535, -0.439510555, -0.25368757599999997, 0.35523886439999997, 1.122778375, 1.41048375, 0.86869221, -0.065215648455, -0.7017456799999999, -0.846464975, -0.7553457450000001, -0.67287415, -0.62613586, -0.53226944, -0.33521656499999997, -0.033830702135, 0.330966125, 0.6763944399999999, 0.90443445, 0.961860945, 0.87191305, 0.7052108250000001, 0.5280888300000001, 0.383775565, 0.31209897999999997, 0.356497525, 0.50913776, 0.6529112349999999, 0.63949306, 0.439690235, 0.162860399, -0.057551278204500005, -0.159921255, -0.14265553649999999, -0.01194083346, 0.19540767250000002, 0.358000495, 0.335228945, 0.11107576543, -0.158431, -0.25296435, -0.0780378068525, 0.2291053895, 0.421274095, 0.369240385, 0.13947541015, -0.101649789875, -0.20466008500000002, -0.1071566955, 0.12295360115815, 0.319216385, 0.35301980499999996, 0.2320768, 0.04456762676500001, -0.1267130625, -0.20775818000000001, -0.1539310545, -0.013688372055, 0.08643453150000001, 0.046776052705, -0.122506944, -0.309869975, -0.39428944, -0.34660074, -0.23889647, -0.17101747, -0.21275871500000001, -0.38198144999999994, -0.608787745, -0.726782115], [0.226382655, 0.1062281255, 0.0486818335, 0.0748464455, 0.142405055, 0.18717502, 0.17721706, 0.13263372, 0.10173837499999999, 0.11757124, 0.17482577, 0.24404457499999999, 0.29519979500000004, 0.309159005, 0.283893235, 0.234265505, 0.181874575, 0.14255217, 0.11820299000000001, 0.10222546149999999, 0.0942614555, 0.0976000165, 0.1006568435, 0.07549916699999999, 0.00393132046, -0.0907066445, -0.14591293, -0.112601685, -0.0064968490575, 0.1014048575, 0.14157017, 0.095502578, 0.00316243997, -0.07230969749999999, -0.09134806100000001, -0.062806255, -0.028964894499999998, -0.022342138999999997, -0.042048329, -0.069384017, -0.08881145800000001, -0.0948796735, -0.0924136725, -0.0932033805, -0.108681219, -0.13736722, -0.158513135, -0.1490481, -0.1062288815, -0.0474407185, 0.00442793255, 0.034122845, 0.041046098, 0.032454216, 0.016758657349999997, 0.0060202064, 0.010429868049999999, 0.026601541000000003, 0.035014311, 0.0090835028135, -0.0647851175, -0.16316240499999998, -0.220824635, -0.1596661475, 0.054910897375, 0.35697305, 0.596647905, 0.6465732900000001, 0.49010708999999997, 0.20716439650000001, -0.097215160255, -0.349943205, -0.523131865, -0.6130542, -0.6198321450000001, -0.5442172399999999, -0.396617605, -0.21329655, -0.05712263385, 0.01606863762, -0.00321298091, -0.068665998, -0.10281228049999999, -0.04186025387, 0.1183471745, 0.297310415, 0.372138265, 0.287532585, 0.1106161655, -0.0357419328525, -0.0710966295, 0.006063979525, 0.1362298855, 0.238071345, 0.25256233, 0.172915985, 0.048058308450000004, -0.0462704605, -0.0591715055, 0.0018789750729999999, 0.083446629, 0.12621262, 0.10438717199999999, 0.04074381335, -0.0168558318005, -0.0338727885, -0.00670536087, 0.0426223745, 0.083026449, 0.09161470749999999, 0.056291206, -0.0255753409965, -0.13207412400000001, -0.21272603, -0.22280068, -0.16159378, -0.071033344, -0.002374643199, 0.0184370445, 0.0023787541495], [-0.136661335, -0.122001185, -0.096893128, -0.07109817, -0.050289075499999995, -0.035459568500000004, -0.020474560500000002, -0.00446111601015, 0.00364361635, 0.00473263765, 0.008471671600000001, 0.012868303000000001, 0.014695474500000002, 0.0199730925, 0.0281087675, 0.032172326, 0.0346855, 0.040405346499999995, 0.0441917325, 0.04662034, 0.061362999499999994, 0.0865615165, 0.094966779, 0.077863029, 0.0743909295, 0.1255449025, 0.21530115, 0.27886266, 0.274692445, 0.227403305, 0.1856459, 0.16855250000000002, 0.158016515, 0.12847986, 0.082634213, 0.047834304, 0.038009648, 0.043737835499999995, 0.050810793, 0.043965949000000004, 0.011121321123, -0.037038932999999996, -0.07294759649999999, -0.0852795305, -0.084472164, -0.07743045300000001, -0.062944613, -0.0513469755, -0.057926673, -0.077434632, -0.0934906705, -0.103289051, -0.111986145, -0.117917755, -0.11627919, -0.104343417, -0.081001238, -0.0511828265, -0.02344252, -0.00018699891, 0.0168009875, 0.0197568495, 0.006475736290000001, -0.014411185049999999, -0.0333451515, -0.045396794500000004, -0.0510912075, -0.052863233, -0.0456091835, -0.022992910000000002, 0.0058883297685, 0.0272530925, 0.0396459655, 0.0425775955, 0.029026888999999997, 0.0016462725919999999, -0.023750749, -0.034707287, -0.0288411575, -0.010694378204999999, 0.006432992016, 0.007582921649999999, -0.0032801963586, -0.0063860537500000005, 0.00542723387325, 0.0212149415, 0.0328498615, 0.040719598499999995, 0.0444109305, 0.0453536705, 0.049453882, 0.057597037000000004, 0.065122879, 0.07200271850000001, 0.0773046715, 0.071250111, 0.0495406815, 0.022843515000000002, 0.0027218927495, -0.011219796099999998, -0.026068052499999998, -0.040649927999999995, -0.0421695135, -0.0257837725, -0.0059412158378799994, 0.00373803652, 0.005688414950000001, 0.0073592888, 0.0126098444, 0.021901690999999997, 0.025995736499999998, 0.0069170546065, -0.044619791500000006, -0.1105885485, -0.146318055, -0.118015077, -0.04494488875, 0.0199966812905, 0.051598511, 0.0643846705]]","[[0.315078335, 0.312456395, 0.18750131150000002, -0.00066326892, -0.12769649449999998, -0.0986718625, 0.08225122026, 0.307152875, 0.43160394500000004, 0.37587954500000004, 0.17307024299999998, -0.06915566202, -0.23417532000000002, -0.241610735, -0.07541673593, 0.1968940845, 0.43587853000000004, 0.50341912, 0.362139095, 0.12068617200000001, -0.01885504992, 0.09651591487, 0.425511725, 0.7414959600000001, 0.830549505, 0.66428408, 0.37632498, 0.1390678385, 0.06418254649999999, 0.1450866295, 0.26179656, 0.269544475, 0.10854256747999999, -0.1524372085, -0.35698961500000004, -0.37281574999999995, -0.2160743, -0.0536867025, -0.0566736665, -0.25560891, -0.521871425, -0.664502255, -0.581060415, -0.357191175, -0.19530952, -0.214692925, -0.35484363, -0.48363503, -0.5256911550000001, -0.48508898500000003, -0.42037373, -0.39261885, -0.38665156, -0.322113645, -0.215339685, -0.243679475, -0.517989915, -0.88956389, -1.1311141999999998, -1.2006397, -1.2070699500000002, -1.21961015, -1.2026542999999998, -1.0907806100000002, -0.8577285050000001, -0.5257988499999999, -0.161495793075, 0.14283781325, 0.32337267, 0.38817203, 0.39702838, 0.395339655, 0.377964685, 0.34281360499999997, 0.36999379, 0.57911078, 0.955481015, 1.2875324499999998, 1.36885255, 1.1996054999999999, 0.934026045, 0.710169155, 0.58222792, 0.567036605, 0.6757694200000001, 0.8642224500000001, 0.99194768, 0.9133378000000001, 0.6383253400000001, 0.36229288, 0.30024367, 0.480519595, 0.71610599, 0.7828324000000001, 0.60176524, 0.26757564850000004, -0.0406359895325, -0.169537565, -0.077028511135, 0.1378313545, 0.29869634, 0.27581381, 0.068478850475, -0.201813616, -0.36846829999999997, -0.328383555, -0.1325730775, 0.031845835581, -0.0026815959300000003, -0.24036683199999997, -0.523329685, -0.65589465, -0.564449685, -0.36311685, -0.24282629, -0.29346632, -0.44078558, -0.53522232, -0.482816715, -0.30018742], [0.2609989, 0.15947026, 0.0820177795, 0.0459774395, 0.028937182, 0.006029686716, -0.00971662765, 0.0156968013665, 0.08892019400000001, 0.17626575, 0.23764006999999998, 0.264109085, 0.27555938, 0.28562666, 0.28439168, 0.25485191, 0.19096698499999998, 0.101106531, 0.006894095345, -0.057041287, -0.0545883845, 0.0043093191450000005, 0.03195473655, -0.058587873083, -0.23058183, -0.32420739, -0.20477545500000002, 0.09849580762, 0.41590753999999996, 0.58559655, 0.563806525, 0.42172406500000004, 0.27229056, 0.193188265, 0.1879488, 0.20234677, 0.18244145, 0.1237444295, 0.05834766550000001, 0.003641808509, -0.0506772, -0.11392919600000001, -0.18214714, -0.24751167, -0.300044535, -0.325001165, -0.30866176, -0.24503267999999997, -0.1402743365, -0.020348254035000003, 0.06878385299999999, 0.08316329700000001, 0.02226071117, -0.0575474845, -0.0846625955, -0.0323500980445, 0.053743273, 0.084978506, 0.002036698988, -0.166836152, -0.31921345500000003, -0.35383911500000004, -0.246908425, -0.064932147005, 0.11272293, 0.255026335, 0.349725225, 0.37715546000000005, 0.32891269, 0.21385508, 0.040872678870000005, -0.17682037550000002, -0.40510018000000003, -0.597928285, -0.716149245, -0.7412634699999999, -0.683468905, -0.5763431450000001, -0.45901385, -0.35772174, -0.269307965, -0.16696028999999998, -0.036442155568, 0.10231792349999999, 0.20865253, 0.24301684, 0.19252306, 0.093032091, 0.01753601995, 0.0239497813, 0.1062611195, 0.20788034, 0.277281205, 0.29591664, 0.267117465, 0.20175961, 0.1140526805, 0.0210330462215, -0.052913737, -0.073428124, -0.01959986346, 0.0814365865, 0.16632615, 0.1954785, 0.18428819000000002, 0.169924985, 0.1674636, 0.170435715, 0.179291855, 0.207717865, 0.2543161, 0.28702579, 0.27455991999999996, 0.218875715, 0.14698669, 0.09117318199999999, 0.0754687655, 0.1049337315, 0.166761575, 0.23305537], [0.073342902, 0.196929285, 0.28561108999999996, 0.292334905, 0.202353835, 0.057640117484999996, -0.06452356, -0.107417602, -0.0699766165, 0.0025512564835, 0.057162451, 0.0721117265, 0.0648542295, 0.06419883750000001, 0.086151594, 0.126365915, 0.156188385, 0.14090654, 0.08602942699999999, 0.0436081075, 0.0436936225, 0.047742468499999996, 0.004307183524, -0.0705501695, -0.1026957255, -0.038502995115, 0.103375472, 0.24383705500000002, 0.29226119, 0.20563862, 0.024244495745, -0.15921428199999998, -0.271772105, -0.29306784, -0.236696695, -0.1403526915, -0.06710429000000001, -0.06667229, -0.126431131, -0.18167439999999999, -0.169848955, -0.076116004, 0.0518684444315, 0.13295774500000002, 0.11795043050000001, 0.0320876308655, -0.051916041999999996, -0.07360454050000001, -0.02048064039, 0.0680829445, 0.12267758000000001, 0.09391424150000001, -0.0044299515905, -0.10660782149999999, -0.14546736, -0.09641801600000001, 0.010180755447000001, 0.113165187, 0.165232635, 0.15743079, 0.10931606249999999, 0.0498963965, 0.0033430004323, -0.0206131305, -0.0258639115, -0.0267677915, -0.0463941815, -0.0979901565, -0.162227075, -0.19703520000000002, -0.176186455, -0.11620847100000001, -0.0694734005, -0.08632846150000001, -0.17014083500000002, -0.27199106, -0.333997535, -0.32872825, -0.263645625, -0.17402186, -0.1079406745, -0.0891167945, -0.09272311, -0.0728410065, -0.00293445353, 0.1119901935, 0.23758058999999998, 0.32048867000000003, 0.31941789, 0.233859085, 0.1026876105, -0.013109341535000001, -0.0573484965, -0.0206648284725, 0.046138014500000005, 0.07964246550000001, 0.0576438995, 0.00548710459155, -0.024568194, 0.018725777185, 0.141855905, 0.27864558500000003, 0.33361995, 0.26565929, 0.1142414365, -0.034724485655, -0.09834894549999999, -0.045844665310000005, 0.08996977149999999, 0.24746126499999999, 0.374770355, 0.445064135, 0.452615015, 0.40300594500000003, 0.316918415, 0.23517857, 0.19234928499999998, 0.18846482, 0.19946178499999997, 0.200648765]]","[[0.43157794000000005, 0.45839351, 0.371935935, 0.210809095, 0.074847975, 0.061260957500000005, 0.20193786, 0.42557159, 0.592099225, 0.595987235, 0.43893717000000004, 0.21004007000000002, 0.026158069399000002, -0.012874834528000001, 0.1344651505, 0.40952415999999997, 0.663396065, 0.7478016, 0.614613305, 0.34088311, 0.078623569802, -0.034077752499999996, 0.042428726264999994, 0.220963635, 0.346570925, 0.30897483000000003, 0.1231537155, -0.08013247894499999, -0.16009065499999997, -0.09188073349999999, 0.013351882245, 0.020317578963, -0.10899338050000001, -0.290469425, -0.38125404500000004, -0.293229705, -0.081455930136, 0.0861318185, 0.064619035725, -0.153488884, -0.436924135, -0.603446085, -0.544734525, -0.314206175, -0.0903758305, -0.0343829255, -0.1797390335, -0.43386235, -0.64406537, -0.67988652, -0.5130443650000001, -0.25828148, -0.147600295, -0.40552312, -1.0228549649999998, -1.6491623999999998, -1.87780365, -1.67984025, -1.3881085, -1.2803499500000002, -1.3462985, -1.41824515, -1.38235175, -1.2329922, -0.99306895, -0.656436865, -0.227624179875, 0.2262010439, 0.59990102, 0.8192615750000001, 0.882075395, 0.8454475850000001, 0.787010895, 0.78430753, 0.90524671, 1.1677231000000001, 1.4877399500000001, 1.7085382999999998, 1.7178872, 1.5284179, 1.236394, 0.93127922, 0.6710842499999999, 0.5257249900000001, 0.57486744, 0.80605611, 1.0491738499999999, 1.09060485, 0.8701932600000001, 0.5428372850000001, 0.34052260500000003, 0.36817485, 0.529905815, 0.6386963099999999, 0.57113345, 0.33218016, 0.0374997022165, -0.1468231175, -0.1131037855, 0.0843665386135, 0.25278094500000003, 0.21786380000000002, -0.038231711604999996, -0.37275284, -0.59091374, -0.593413855, -0.45650355, -0.35548387499999995, -0.39845227, -0.54004763, -0.629452005, -0.530819105, -0.2378578715, 0.11018623857, 0.332792785, 0.328815, 0.11570138531, -0.197864941, -0.45198897000000005, -0.506644425], [0.18581150999999999, 0.13375006, 0.070040909, 0.020531639954499997, -0.022090755555, -0.060291595999999996, -0.0673656375, -0.014484372955, 0.08919578, 0.19526668, 0.26122712, 0.28777149, 0.30138993, 0.31664439, 0.32507491, 0.30643085, 0.24796258999999998, 0.15791025, 0.060414549500000005, -0.00999816279, -0.014470481689999998, 0.052045471, 0.13323867749999999, 0.15429926500000002, 0.09006920149999999, -0.01194624016, -0.0698752015, -0.030765436625000003, 0.09725408149999999, 0.257570535, 0.37448087, 0.39476463, 0.325776995, 0.22011858, 0.114003158, 0.007210418939999999, -0.0947075465, -0.15658085, -0.148767285, -0.086047463, -0.012940451449, 0.035140551, 0.0469546045, 0.02687576585, -0.017275909694, -0.07714048949999999, -0.13531435, -0.15588582, -0.095924158, 0.051651334245000007, 0.2257754, 0.342167925, 0.37134165, 0.34339068500000003, 0.29494784, 0.24278593, 0.193580255, 0.15416959, 0.13525601, 0.14927597, 0.18788939500000001, 0.1960604, 0.0976584251, -0.114595414545, -0.32697686, -0.38367413499999997, -0.22114939249999999, 0.08114886511, 0.34913575, 0.39880224, 0.14019639207, -0.349017134, -0.866682385, -1.2177441500000001, -1.31769245, -1.2008196, -0.94908185, -0.6289121750000001, -0.30232606, -0.051563375512, 0.0528493225, 0.002382216546, -0.1336652165, -0.23833283000000002, -0.223019835, -0.0907947266, 0.0831316571425, 0.21623588000000002, 0.25557208, 0.184034695, 0.02888918009, -0.1299819125, -0.20128853, -0.153598729, -0.03323266254, 0.081590262, 0.13783489, 0.13208703, 0.09134715, 0.0419666665, -0.002139314198, -0.030677244, -0.028389128, 0.021111648870000003, 0.11781153, 0.23238119499999998, 0.32513226500000003, 0.37656056499999996, 0.39422565, 0.39641971, 0.389784735, 0.36285168999999995, 0.30918881, 0.24761095, 0.20151586500000002, 0.17531579, 0.15799111, 0.13830748, 0.11657009, 0.10563143], [-0.10471601359999999, 0.08550860985, 0.24807264499999998, 0.3458733, 0.346550485, 0.23753194, 0.051145929619999995, -0.13925345, -0.2510351, -0.24192093499999998, -0.138759637, -0.006069112169999999, 0.1034064495, 0.16269191500000002, 0.16956554000000001, 0.14750403, 0.13059694, 0.13433641500000001, 0.14729971, 0.146741685, 0.109072254, 0.019860698398, -0.0998183585, -0.185410205, -0.17620633000000002, -0.0718876848, 0.071968907815, 0.195191235, 0.267462315, 0.27557947, 0.20399721499999998, 0.054573824560000005, -0.1298219415, -0.27933996499999997, -0.34338337, -0.327045045, -0.28185346, -0.25333676, -0.24597286499999998, -0.24100719, -0.218490715, -0.16222456000000002, -0.077165886, -0.0037828263865, 0.0091769888915, -0.050088596, -0.14294564899999998, -0.20575569000000002, -0.1904866, -0.09740752849999999, 0.02467557998, 0.116525591, 0.14908394, 0.132735555, 0.10036352850000001, 0.08308851049999999, 0.0899136205, 0.109551695, 0.13526208, 0.16924682000000002, 0.19513069000000002, 0.177905315, 0.1055507265, 0.008068367205, -0.067358623, -0.091109554, -0.0691755245, -0.032916112000000004, -0.010736643349999998, -0.0162277015, -0.055205798, -0.119824983, -0.1808884, -0.20419307499999997, -0.175360245, -0.1112647845, -0.051317127, -0.026217297999999997, -0.031541357, -0.043589348, -0.0517684585, -0.0552659415, -0.043398572499999996, -0.0071611998655, 0.0449480925, 0.10180238550000001, 0.164126305, 0.231155175, 0.28045376, 0.27254676, 0.181674145, 0.03131774120235, -0.1053365275, -0.15984798, -0.12004941799999999, -0.0189068443655, 0.1021873835, 0.19873905, 0.220714395, 0.1378595725, -0.02476285518, -0.184693755, -0.263530955, -0.25973587, -0.23167115500000002, -0.218524925, -0.21072261, -0.17991900000000002, -0.10511482949999999, 0.021041899145, 0.188002215, 0.36501397500000005, 0.50130728, 0.5355014849999999, 0.431293615, 0.2188420665, -0.0016747369549999999, -0.10965196, -0.04406861128, 0.1443814255]]","[[0.1009931595, 0.169640935, 0.108134225, -0.02394402824, -0.120764737, -0.1065479405, 0.0278103758925, 0.214730815, 0.341266025, 0.33025084, 0.19701811, 0.025094186745, -0.09315757200000001, -0.0947160525, 0.03530470592, 0.244635425, 0.41905479999999995, 0.44781677000000003, 0.31153754, 0.12246885, 0.074490055, 0.29646016, 0.70247426, 1.02277737, 1.03797156, 0.7618550449999999, 0.39373517, 0.151650145, 0.13912802, 0.292947625, 0.43497373000000006, 0.40821644, 0.189742113, -0.10423084937049999, -0.299577765, -0.284842665, -0.112197134, 0.02698458334, -0.03567600737, -0.300665625, -0.603090415, -0.73535438, -0.602081995, -0.30942251, -0.0912216555, -0.108187453, -0.319930145, -0.54598344, -0.61640911, -0.48926448, -0.28095973999999996, -0.16963355, -0.226281915, -0.35964810999999997, -0.462461995, -0.553896065, -0.69762342, -0.85830653, -0.9597084300000001, -1.0017939200000001, -1.0280277, -1.040279, -1.000427155, -0.88558465, -0.701215525, -0.460845305, -0.19475740349999998, 0.0356324821319, 0.173385895, 0.21911786, 0.22999698999999998, 0.25953928000000004, 0.310789715, 0.36539060999999995, 0.44631033999999997, 0.606406215, 0.82618584, 0.97808969, 0.95473902, 0.78394129, 0.576872205, 0.41273328, 0.30969204, 0.283737725, 0.37639067, 0.5810795550000001, 0.773913915, 0.7944377450000001, 0.614217605, 0.38744304999999996, 0.308745665, 0.418167645, 0.5659915, 0.573259075, 0.39196450499999996, 0.115468283975, -0.10652426300000001, -0.15479866, -0.00992204552, 0.21886909, 0.362970305, 0.33235132, 0.18382148, 0.0499907065, 0.0197613765, 0.0905681205, 0.18658556999999998, 0.20022905000000002, 0.066550014146, -0.17084879399999997, -0.36322683499999997, -0.351087665, -0.10668552568999999, 0.2140950415, 0.391546625, 0.316290555, 0.05546423887, -0.2147671635, -0.33116518, -0.24207853499999998], [0.0542650805, 0.0179544831, -0.00682879092325, -0.030767838, -0.0821516915, -0.14766163000000002, -0.16112847, -0.074843857, 0.076215944905, 0.204483135, 0.24834631999999998, 0.21350434499999998, 0.15331018500000002, 0.11660016000000001, 0.115971195, 0.131676195, 0.12310508, 0.054753461755, -0.059147187170000004, -0.139890595, -0.106894613, 0.015477672415, 0.090798298, 0.021883213885, -0.11671929049999999, -0.1460184465, 0.023242882766, 0.29957011, 0.50792435, 0.5400808, 0.41669406000000003, 0.24810947, 0.15067508500000001, 0.16351966, 0.22183918, 0.22435881, 0.12874975300000002, -0.02320026246, -0.157920685, -0.229618605, -0.23825994, -0.220831785, -0.232807095, -0.304825825, -0.39801668, -0.42874986, -0.350911775, -0.188729571, 0.00808438249, 0.19397199, 0.309145665, 0.30032045, 0.18844101, 0.07516545749999999, 0.0524511485, 0.121072862, 0.193341175, 0.16641777000000002, 0.03444196772, -0.056763321, 0.072774160875, 0.413519825, 0.7019085749999999, 0.676637725, 0.372986655, 0.0606689111, -0.0502792045, 0.0511812232, 0.242959585, 0.35488812000000003, 0.250521875, -0.06603808812499999, -0.45142114499999997, -0.7441417, -0.8677029749999999, -0.854371285, -0.78813191, -0.714658925, -0.626710235, -0.51687907, -0.39561677500000003, -0.280616495, -0.18532333, -0.10561660849999999, -0.03345222795, 0.0231923795125, 0.0507273405, 0.050254215000000005, 0.048490992999999996, 0.07153590900000001, 0.10730773599999999, 0.12819169, 0.13694349, 0.153947055, 0.17894449, 0.18746763000000002, 0.151071685, 0.0660865595, -0.0255671809565, -0.0639540195, -0.029375345682, 0.0413636863, 0.09920695500000001, 0.13301017, 0.16798615000000003, 0.21666629, 0.255535485, 0.26201247, 0.24921265, 0.25375802000000003, 0.296907125, 0.357633595, 0.386909075, 0.35344146000000004, 0.27262063999999997, 0.19017087, 0.142571645, 0.138329945, 0.157522675, 0.165490785], [-0.051128071500000004, 0.01594282989, 0.118769022, 0.19526039999999997, 0.185998865, 0.086929787, -0.046174620275, -0.13726433, -0.13468935999999998, -0.042280339104999995, 0.082317368, 0.17159431000000003, 0.19443555499999998, 0.159437135, 0.09509246449999999, 0.0324475648, -0.0119912584555, -0.038028335, -0.040200228500000004, -0.006630816789, 0.0440451175, 0.0570014925, 0.0027769476645000003, -0.0751457735, -0.0994733915, -0.033045746872500004, 0.0963841815, 0.22235417500000002, 0.276059615, 0.221280245, 0.07929527065, -0.08629949220000001, -0.21547063000000002, -0.274345005, -0.250573115, -0.162054975, -0.06368394399999999, -0.0103318818, -0.013512137399999999, -0.043874712, -0.057800917, -0.023572067781000003, 0.051935993, 0.123264135, 0.14885996, 0.12628372000000002, 0.082326845, 0.048804779500000006, 0.049163112499999995, 0.08393604549999999, 0.124589045, 0.137073085, 0.1086731775, 0.0492989535, -0.01506446795, -0.0508544, -0.039187744499999996, 0.010128823386000001, 0.0740673365, 0.12985955999999999, 0.149853805, 0.110125797, 0.016838707595, -0.0880186765, -0.15236512, -0.15320637, -0.119576245, -0.10758358, -0.14719999, -0.219513925, -0.281154395, -0.29983576500000003, -0.27253135, -0.22025951500000002, -0.167784005, -0.133432535, -0.13124338, -0.16107841, -0.19847422, -0.21507060500000003, -0.20228912000000002, -0.16064495, -0.08550464399999999, 0.015484569138999999, 0.113213109, 0.18321811, 0.222704655, 0.23453429, 0.21371807, 0.15628458, 0.07201821800000001, -0.010441533494999999, -0.053851502499999995, -0.04164637349999999, 0.0071458716050000004, 0.059431617, 0.090961637, 0.087222191, 0.0496291255, 0.008482737159, 0.001591074249, 0.030681842, 0.0641324325, 0.07779370349999999, 0.063936015, 0.023816978245, -0.02521175845, -0.050563529999999995, -0.02063148259, 0.075956794, 0.22082186499999998, 0.37399115, 0.48700360000000004, 0.507488705, 0.40599292499999995, 0.224941465, 0.071763829, 0.0405906405, 0.144627637, 0.30841173]]","[[0.155071675, 0.22792679, 0.240701865, 0.192746895, 0.129051435, 0.117403615, 0.21347583, 0.40175549, 0.5764134049999999, 0.618868935, 0.49840390999999995, 0.288225695, 0.1063379435, 0.054168323000000004, 0.173403579, 0.411669245, 0.62929014, 0.682208495, 0.526321995, 0.24741517, -0.00063695594, -0.090953865, 0.00697434268, 0.20768686, 0.349580665, 0.299919245, 0.066325522345, -0.1968454435, -0.31690677, -0.25189063, -0.112312239, -0.042569539499999996, -0.09625844, -0.214611655, -0.28916782, -0.25239985, -0.1376152765, -0.0548827235, -0.0958350175, -0.25445212, -0.43077823000000004, -0.49954162500000004, -0.39689828, -0.1783121075, 0.0050444212435, 0.0125594767215, -0.180665116, -0.46915496500000003, -0.69143617, -0.716306135, -0.5082022700000001, -0.19117111399999998, -0.072310885, -0.47868319, -1.381680825, -2.2292624, -2.4278785, -1.9984948, -1.4735773, -1.24403885, -1.2646429000000001, -1.2877123499999998, -1.16615955, -0.9085747399999999, -0.55652137, -0.10652589544999999, 0.43560518000000004, 0.98160563, 1.3873197, 1.54835105, 1.4697385, 1.2598171, 1.0641384, 0.99705462, 1.10115855, 1.3268883500000002, 1.5452848000000001, 1.6172754, 1.4804577, 1.1846904, 0.8404205899999999, 0.534607665, 0.31497074999999997, 0.23729436, 0.35668972, 0.62559988, 0.8512376949999999, 0.835184795, 0.561654365, 0.2207327295, 0.04799022, 0.13147326550000002, 0.34926936, 0.48344572999999996, 0.39689332, 0.114660375595, -0.21319525949999998, -0.39917386, -0.33050322, -0.066290670555, 0.1819213775, 0.21122143999999998, -0.0080298188885, -0.317702665, -0.5088514, -0.4866615, -0.32517544, -0.17537431, -0.12834464499999998, -0.15773235, -0.166498585, -0.08216029235000001, 0.0792245328, 0.23391331, 0.30071963, 0.24175187999999997, 0.059169252889999996, -0.201660325, -0.429581075, -0.49029291], [0.1270256165, 0.01888615245, -0.049405014, -0.0276897303235, 0.05117377855, 0.1136153045, 0.117674965, 0.0825199235, 0.059136037999999995, 0.0801287465, 0.14019467, 0.21361193, 0.27134511, 0.28974399500000003, 0.2647816, 0.21732707, 0.177990445, 0.163652385, 0.16191764, 0.144929165, 0.10513064999999999, 0.06612531599999999, 0.05750248, 0.0837241665, 0.11634059499999999, 0.122973175, 0.1016645625, 0.078751096, 0.08151501700000001, 0.11755079500000001, 0.16963753, 0.20640688000000001, 0.19999345999999998, 0.142133645, 0.0532106796, -0.029947718390000003, -0.075013463, -0.063987625, -0.00438142415, 0.0652566555, 0.100922436, 0.08931711399999999, 0.055780037, 0.040451878499999996, 0.064559674, 0.11648588650000001, 0.1634842, 0.17110998500000002, 0.1280543065, 0.063183586, 0.029685629499999998, 0.067188339, 0.17075323999999997, 0.28766827500000003, 0.35363365, 0.340202375, 0.270769865, 0.20173501500000002, 0.176858315, 0.17245087, 0.09325630594999999, -0.138289425595, -0.472653765, -0.74356039, -0.797564905, -0.60172792, -0.254246753, 0.0781929438245, 0.23854816499999998, 0.145847917, -0.16385376182999997, -0.559776785, -0.89487107, -1.0772296, -1.0884109, -0.9516460000000001, -0.69556726, -0.36043378, -0.024522016844999998, 0.21069148999999998, 0.280166825, 0.202389315, 0.06666572185, -0.0255029594815, -0.014396876525, 0.090119898, 0.21179024500000002, 0.25631988, 0.181896565, 0.033310870642500004, -0.090430818, -0.10924125200000001, -0.020157564477699997, 0.105907792, 0.182268285, 0.16657919, 0.08124733199999999, -0.01212874105665, -0.059363823, -0.0424299145, 0.021292587210499998, 0.09476300050000001, 0.143631765, 0.15413216500000002, 0.134633015, 0.10853560500000001, 0.104883855, 0.14178542, 0.21405380499999999, 0.29519245, 0.344618365, 0.328899385, 0.25302164, 0.15940829, 0.090620808, 0.062782968, 0.066946038, 0.0813324905, 0.089442239, 0.0927186875], [-0.17765804500000001, -0.022217687795, 0.1223492335, 0.22992822000000002, 0.28053407, 0.25785312, 0.159706923, 0.0108309713445, -0.1355991085, -0.22420254, -0.23315545499999998, -0.17800328, -0.087384197, 0.013229200665000001, 0.10693364949999999, 0.18706228500000002, 0.247001405, 0.2686262, 0.23199871000000002, 0.13342572949999998, -0.013238039640000001, -0.1788664005, -0.311322985, -0.348317295, -0.266517925, -0.1104568895, 0.04789617308499999, 0.17025445, 0.25705494, 0.300211035, 0.261157515, 0.11050631085000001, -0.124969961905, -0.36356886000000005, -0.518026085, -0.549537765, -0.47934472, -0.35246648999999997, -0.202817195, -0.051255515035, 0.0913421405, 0.22845960999999998, 0.360553075, 0.45510674, 0.45589149, 0.33190439499999996, 0.11290432243250001, -0.11781501625, -0.26534656, -0.27670397, -0.1701324585, -0.014658241835500001, 0.11744029149999999, 0.183451455, 0.17964718999999998, 0.132796015, 0.07728771250000001, 0.0355124095, 0.016960116, 0.022019759, 0.039004949, 0.048334091499999995, 0.035794925000000005, 0.000199342995, -0.0452627135, -0.0791192485, -0.0894373175, -0.0856920035, -0.0891700185, -0.11489002949999999, -0.16140257, -0.210619465, -0.23908364, -0.233365585, -0.1953552, -0.139995535, -0.090765201, -0.0662150295, -0.0647844815, -0.071038815, -0.074208793, -0.0684357685, -0.044141441, 0.0032770925675000002, 0.0659003225, 0.139297725, 0.23384812, 0.351859525, 0.45528839, 0.46723708, 0.321840305, 0.03526098842, -0.27342613, -0.45637485, -0.44308769499999995, -0.277039555, -0.06725666158, 0.08655327399999999, 0.14550269500000002, 0.1318284, 0.08274949599999999, 0.016538386574999998, -0.055808501, -0.11390580950000001, -0.13919356, -0.127187625, -0.083012692, -0.013513338845, 0.0792173295, 0.19891982500000002, 0.344689735, 0.49658731500000003, 0.608969505, 0.616985585, 0.47329985, 0.20513099499999998, -0.070889866215, -0.21403769, -0.1584570645, 0.039336621925]]","[[0.0997908235, 0.202390145, 0.216517135, 0.1543889, 0.065981492, 0.017101262500000002, 0.0730678375, 0.245131485, 0.449328555, 0.56152141, 0.524152485, 0.383175425, 0.23782868000000001, 0.181745905, 0.26671374, 0.466813925, 0.6688710050000001, 0.740813945, 0.633004995, 0.41047051500000004, 0.19936779000000002, 0.10966566, 0.179214325, 0.344957165, 0.46138818, 0.399140035, 0.1643018825, -0.09079875837, -0.19486573, -0.107222703, 0.055795016595, 0.136721535, 0.06759045565, -0.09712501870000001, -0.23610536499999998, -0.252807355, -0.151449845, -0.039604795, -0.0392678805, -0.18322250199999998, -0.391511595, -0.532053415, -0.51137145, -0.34367930999999996, -0.1529364775, -0.0915100305, -0.22456394500000001, -0.47053739, -0.6539088599999999, -0.62971383, -0.39428542499999997, -0.11022793950000001, -0.0271041149855, -0.33029594500000004, -0.96150765, -1.57991865, -1.82185155, -1.6368248500000002, -1.29277535, -1.0599759500000001, -0.984706805, -0.9498130650000001, -0.85136318, -0.67531438, -0.44350482999999996, -0.1526099720905, 0.197291353, 0.543917095, 0.782349355, 0.849952725, 0.779267795, 0.66991144, 0.620326055, 0.68200081, 0.84459834, 1.038533195, 1.1710245000000001, 1.18487725, 1.0783192099999999, 0.8898242449999999, 0.671566835, 0.45913616500000004, 0.27719276, 0.180502465, 0.243281645, 0.45752624, 0.672059505, 0.7025156149999999, 0.509138565, 0.24291142000000002, 0.116680385, 0.219461285, 0.437278105, 0.55728464, 0.45432173499999995, 0.174068379, -0.12420527943, -0.271008495, -0.186252177, 0.053549993340000004, 0.25486965500000003, 0.25977355, 0.073396673875, -0.157657525, -0.27542891999999997, -0.230406595, -0.1085118385, -0.046187138, -0.1055613575, -0.22381046000000002, -0.27285899, -0.17039494600000002, 0.0553478004765, 0.29785039999999996, 0.44915899000000004, 0.44263653499999994, 0.255359965, -0.074410557355, -0.40643224000000006, -0.545489715], [0.045237163569999995, -0.082655809, -0.11898965, -0.059150312, 0.02049707041, 0.0437844155, 0.0041504256205000005, -0.043308799, -0.040444592, 0.02663672866, 0.125523834, 0.21074769, 0.25273531, 0.24463046500000002, 0.200148785, 0.143364085, 0.08977271999999999, 0.0394410585, -0.012064112461, -0.0549931065, -0.066989134, -0.050486652, -0.0415485785, -0.056829266499999996, -0.060451475, -0.0068855329265, 0.094455821, 0.180355515, 0.20337138500000002, 0.177062165, 0.1443413, 0.12786250000000002, 0.12282267499999999, 0.110909789, 0.07139362249999999, -0.002847041455, -0.0887357165, -0.140347345, -0.128344585, -0.0712571255, -0.0210006535, -0.024190537, -0.0916463645, -0.18429410499999999, -0.230343895, -0.177099215, -0.03784767108, 0.11753559100000001, 0.224630025, 0.26662528, 0.25798067, 0.22640813999999998, 0.21470649000000003, 0.255870715, 0.33572096, 0.40049267499999996, 0.40110948999999996, 0.332354445, 0.24650593499999998, 0.22028041, 0.27808723, 0.341121925, 0.2851354, 0.082183898725, -0.1412769405, -0.21990903500000003, -0.1032007024, 0.1172677605, 0.284237415, 0.258276145, -0.004738350255, -0.41388205499999997, -0.805383985, -1.0497067, -1.1047303499999999, -1.000745345, -0.7943737849999999, -0.53884712, -0.29063912999999997, -0.109830896, -0.029112863500000002, -0.0341997135, -0.0765432005, -0.10131266350000001, -0.077878557, -0.0164765073485, 0.0380545215, 0.0381508455, -0.020730551388, -0.09294209800000001, -0.125796395, -0.0978740835, -0.026385518445, 0.045394096499999995, 0.0737769185, 0.0400584138, -0.040766592505, -0.1279381635, -0.174187535, -0.153742105, -0.082560525, -0.00741467251, 0.0334656235, 0.039251024499999995, 0.0354846365, 0.044273953500000005, 0.07502453049999999, 0.1333575665, 0.221709645, 0.329923545, 0.42793922, 0.47572831, 0.45283682, 0.37805388, 0.294877695, 0.24151316, 0.230383955, 0.24640702, 0.260618645, 0.25318968000000003], [-0.12910295400000002, 0.013102240965000001, 0.15286107599999998, 0.24920667000000002, 0.267374215, 0.197453, 0.064597472605, -0.08009619150000001, -0.17962593, -0.19898495, -0.144273075, -0.049355126614999995, 0.052597132899999996, 0.13954384, 0.19988696, 0.23178839499999998, 0.236213815, 0.21069443, 0.155930085, 0.0796540425, -0.013053171525, -0.11762634200000001, -0.20809625499999998, -0.23711406499999998, -0.176557745, -0.047739997640000004, 0.10099842349999999, 0.233078335, 0.32574795, 0.34816092, 0.266431705, 0.07791831153499999, -0.16756511899999998, -0.38098032000000004, -0.47924084, -0.43921785, -0.309923755, -0.16173224149999998, -0.03264692526, 0.0739868205, 0.16818583, 0.259825305, 0.34222431, 0.380837655, 0.33398409, 0.191650762, -0.004983315265, -0.176120665, -0.24405681999999998, -0.18495431, -0.048361750765, 0.0808206535, 0.140415705, 0.1188275605, 0.047873499849999994, -0.0232708320495, -0.0597597265, -0.055996042499999996, -0.02362755975, 0.020797884842, 0.0537990875, 0.0494917345, -0.0035574655199999998, -0.09272563099999999, -0.184476355, -0.24266159, -0.2571814, -0.24959779, -0.24542706, -0.249832285, -0.250651915, -0.2344581, -0.19853945, -0.15165869, -0.1050732835, -0.06922969400000001, -0.056653883, -0.07332308900000001, -0.105940435, -0.1309365, -0.13364835, -0.10735918500000001, -0.044207668374999995, 0.056119737, 0.17986394, 0.31242034, 0.44269612, 0.54414047, 0.566699405, 0.46317121, 0.2320391005, -0.055607799734, -0.279652155, -0.345365735, -0.244456085, -0.04843792464, 0.1443544235, 0.257363375, 0.26123147, 0.172736265, 0.0387733758325, -0.07426216100000001, -0.112442895, -0.08291389649999999, -0.042830139999999996, -0.0296602785, -0.027495779499999998, -7.147986499999997e-05, 0.0704762895, 0.17901055, 0.30579931, 0.41385636, 0.44530260499999996, 0.34744160999999996, 0.12570681354, -0.1356030746, -0.31174605499999997, -0.30691716, -0.11845417795499999, 0.1553356965]]","[[0.3671951, 0.26757393, 0.1039648285, -0.055116887425, -0.15800896, -0.148036878, 0.052499061825, 0.410020295, 0.70995478, 0.7158587900000001, 0.39885964, -0.0475937985765, -0.400019735, -0.52789184, -0.40427068, -0.120681338035, 0.13791027749999998, 0.222962995, 0.11186478940000001, -0.13103749046000002, -0.39439709, -0.5302894349999999, -0.424689825, -0.10704658567999999, 0.212369956, 0.27294646499999997, 0.010962823345, -0.347344855, -0.49334926500000004, -0.32867914, -0.028286195355, 0.1400296075, 0.040252320844999995, -0.23933412, -0.48603966, -0.51661075, -0.30126002, -0.020846851135, 0.0650008697, -0.1553549068, -0.547138425, -0.829920765, -0.7753162100000001, -0.36618770300000003, 0.16423849315000003, 0.467888635, 0.35532569, -0.032613517395, -0.35582507, -0.35240271, -0.007053352675, 0.43744879, 0.578798755, 0.07353665525, -1.0061559900000001, -2.0328791, -2.3305251, -1.8728636, -1.22724205, -0.8775533799999999, -0.8403668999999999, -0.86983167, -0.8119888000000001, -0.67694012, -0.48469208, -0.187236182535, 0.23005793835, 0.673745695, 1.01633191, 1.1877594, 1.20109935, 1.145748, 1.1149172, 1.11673045, 1.1111575, 1.1066625, 1.1523158, 1.2314584499999999, 1.2423261, 1.12986425, 0.94541869, 0.765739915, 0.620978695, 0.534809155, 0.552534615, 0.6604774299999999, 0.734119545, 0.63329636, 0.34433636, 0.022139612529999998, -0.11420865499999999, 0.028628130595000002, 0.290188005, 0.36661921, 0.108759188895, -0.353890775, -0.755644015, -0.8757637250000001, -0.6603214, -0.264682939, 0.045142002305000005, 0.07982556258, -0.1506225005, -0.439677815, -0.53422623, -0.36225365, -0.09932088795, 0.003690421474, -0.14867089, -0.41572721, -0.5382465, -0.36171703, 0.0308575304945, 0.40729132999999995, 0.5633103150000001, 0.42520800000000003, 0.07970305081500001, -0.282856075, -0.465783315, -0.34967896000000004], [0.22962847, 0.138518285, 0.148872825, 0.2319502, 0.29673193000000003, 0.276796595, 0.197560835, 0.150516985, 0.202656685, 0.33705335499999994, 0.476539845, 0.54542023, 0.513763865, 0.41417774, 0.31531545, 0.265107425, 0.26115186, 0.26476884, 0.23627821000000002, 0.16647995000000002, 0.077336019, -0.010068579934999999, -0.0949983485, -0.177771555, -0.23554170500000002, -0.22495035000000002, -0.1173974665, 0.04682758771888, 0.165840835, 0.16984292, 0.08383015399999999, -0.012535292909, -0.069990741, -0.10249327550000001, -0.13659516, -0.17028635, -0.192774745, -0.201299295, -0.1916173, -0.154741735, -0.09137334, -0.028199203399999997, -0.0095923823, -0.057123746999999996, -0.13461640149999998, -0.16025410999999998, -0.07543569659, 0.08392626872499999, 0.21382535, 0.243056475, 0.17575632500000002, 0.0620157171, -0.037572467555, -0.082433465, -0.066582887, -0.016561875984, 0.02166987885, 0.005444000886, -0.074371285, -0.18369242, -0.277151745, -0.3233843, -0.30227497, -0.20399676, -0.03681095282, 0.1573836865, 0.3050798, 0.33507491500000003, 0.222335545, 0.00740268749, -0.22896698499999998, -0.42659578000000004, -0.57772784, -0.6889723750000001, -0.7428018249999999, -0.7107640700000001, -0.58732152, -0.40550435, -0.21539291500000002, -0.057479736090999996, 0.045742654800000004, 0.1014574875, 0.144908755, 0.211467575, 0.304328115, 0.37171833, 0.33894733000000005, 0.19221272450000002, 0.015580060805, -0.0639531415, 0.01834260710355, 0.20819571, 0.37867141000000004, 0.4352202, 0.37159473499999995, 0.242095265, 0.11387565000000001, 0.0340738815, 0.012998166499999998, 0.031403846, 0.064629828, 0.09397218349999999, 0.106253145, 0.101055322, 0.093958739, 0.1031924295, 0.13381941, 0.16984146, 0.188842595, 0.19010686, 0.18198614, 0.150372635, 0.082255058, -0.0025501282955, -0.0681007915, -0.0910499045, -0.0722923355, -0.0334469535, 0.0068859528225, 0.045520402], [-0.032838449318, 0.053344315499999996, 0.137308443, 0.22449570000000002, 0.27372794, 0.231704935, 0.0854716556, -0.1178422065, -0.29007427, -0.354915085, -0.29671625, -0.15500047549999998, 0.014552030778500001, 0.1640852555, 0.271048375, 0.34181719, 0.379273065, 0.355090595, 0.240280135, 0.057109864502, -0.128895121, -0.26103739000000004, -0.314320345, -0.284695245, -0.18245229999999998, -0.03572056172, 0.120808809, 0.26112087500000003, 0.34703511, 0.31319888500000004, 0.121278529305, -0.18257759199999998, -0.4869926, -0.67796254, -0.691194915, -0.540336595, -0.302796175, -0.0588016497825, 0.1520991845, 0.32094636, 0.45708233, 0.583019905, 0.695910745, 0.7364702599999999, 0.635022065, 0.38901487, 0.083255283195, -0.1513258875, -0.20643172499999998, -0.067574572909, 0.164794822, 0.342791155, 0.372194925, 0.257039455, 0.07561900872999999, -0.0780022735, -0.15314202500000001, -0.157705275, -0.123407135, -0.0789703175, -0.052691287, -0.0689544005, -0.1329154825, -0.22611485, -0.311214755, -0.349510915, -0.332442265, -0.292186005, -0.270725055, -0.282480035, -0.30656002, -0.30872609, -0.27357481, -0.213697765, -0.15427543, -0.12301066000000001, -0.14499857, -0.22192768000000002, -0.31750792, -0.38239868, -0.3941842, -0.36081143, -0.29113703, -0.182403765, -0.027688045575500003, 0.175299231, 0.409210475, 0.619843965, 0.72007436, 0.634031185, 0.360634945, 0.007253048155, -0.254224325, -0.295710605, -0.114371544135, 0.1783925, 0.433365905, 0.54277263, 0.488980725, 0.340923155, 0.189174825, 0.0809965685, 0.023469649000000002, 0.01041245995, 0.018508448, 0.014552257550000001, -0.0125937834225, -0.038797851, -0.02360719037, 0.0570532152, 0.187382205, 0.313422355, 0.36572777, 0.295358465, 0.1185132565, -0.076074584713, -0.18440023, -0.152868868, -0.0036426223200000003, 0.186161333]]","[[0.13453865, 0.1037901175, 0.052964130000000005, 0.022504548, 0.0083842530245, -0.013306552680000002, -0.029459153499999998, -6.091614315e-05, 0.0724100185, 0.11848718500000001, 0.07555845, -0.046799689575, -0.181057925, -0.234600355, -0.164917505, -0.0341237893085, 0.0584502365, 0.057399803, -0.02873068358, -0.138809858, -0.191686065, -0.139651925, -0.020153600529500004, 0.0480918095, -0.03013550042, -0.22369195, -0.407254485, -0.476041295, -0.39759068, -0.220729005, -0.0628660845, -0.0436102225, -0.179865895, -0.35197127500000003, -0.43355244499999995, -0.409426685, -0.347315775, -0.32953156, -0.392053125, -0.50179249, -0.587817575, -0.591821315, -0.51563673, -0.40959490000000004, -0.33402679999999996, -0.310476885, -0.29748348, -0.235666875, -0.08983387642, 0.053135263445, -0.03968585512, -0.381455895, -0.38186241449999997, 0.7007728489999999, 2.5944151499999997, 3.7403816, 2.9567600499999998, 0.9995581004999999, -0.48079716705000003, -0.8414602999999999, -0.6144877799999999, -0.462062755, -0.52745413, -0.6002946450000001, -0.5125223050000001, -0.276510255, 0.008888697093249999, 0.25964052, 0.42962085, 0.493811455, 0.46976188, 0.40680900999999997, 0.29529432, 0.094001093775, -0.10886646000000001, -0.1278354915, 0.061428202055, 0.26549093, 0.315236145, 0.23092499, 0.12988416349999998, 0.077148781, 0.047612224, -0.0170678980685, -0.10810728450000001, -0.15012916499999998, -0.137307, -0.15046878, -0.215324695, -0.24835309500000002, -0.1566178245, 0.024359386375, 0.12355083, 0.025633652809999997, -0.18355217100000001, -0.33777618, -0.37648059000000006, -0.3479802, -0.31765907, -0.314167115, -0.303566905, -0.21956773, -0.042298526715, 0.15040338450000001, 0.263216285, 0.31857458, 0.37976271500000003, 0.39312137, 0.24851087, -0.057093957765, -0.37998211, -0.5420684450000001, -0.49065392, -0.35796562000000004, -0.33332028, -0.454236835, -0.5551518049999999, -0.47408979, -0.26454421499999997, -0.08892417749999999], [0.105809098, 0.09644697349999999, 0.11830116, 0.14998464, 0.150774405, 0.10810336, 0.0591029525, 0.0595074545, 0.1336774415, 0.25064065, 0.345740445, 0.370726795, 0.32682032, 0.256587325, 0.21112891, 0.21614504499999998, 0.25299656, 0.273783805, 0.24323691, 0.16855421, 0.09253142, 0.055626326, 0.058099275500000006, 0.0588022655, 0.017372848166, -0.0563175365, -0.101029269, -0.063618652, 0.0410981904895, 0.1388979445, 0.16223429500000003, 0.103861272, 0.012260929537, -0.053472829500000006, -0.0652290695, -0.0405210365, -0.021897708, -0.0369250765, -0.074864481, -0.09717635200000001, -0.0692759085, 0.007475908505, 0.087026838, 0.1117394795, 0.06661236200000001, 0.0018002127845, -0.006027588057999999, 0.070720852, 0.17546402, 0.22335759, 0.184888145, 0.10105790499999999, 0.033541892999999996, 0.016495996500000002, 0.046067831999999996, 0.0957808115, 0.13184823, 0.12917915000000002, 0.0815312565, -0.00922285741, -0.144257143, -0.302714135, -0.413385265, -0.39665, -0.23819640499999997, -0.012106783145, 0.161930309, 0.19838312, 0.09788350400000001, -0.07559437031499999, -0.25763762, -0.41765152, -0.546430435, -0.63272373, -0.66010095, -0.6189957549999999, -0.515565385, -0.374296385, -0.23354226, -0.127471563, -0.0685970405, -0.0444708575, -0.0255179045, 0.0213468286615, 0.10899197799999999, 0.20302432499999998, 0.238743235, 0.18681135999999998, 0.08930163249999999, 0.0246584565, 0.0427182105, 0.1325143325, 0.236385985, 0.28970462999999996, 0.26180640499999996, 0.17438473999999998, 0.0867626075, 0.055014008499999996, 0.090728827, 0.156130475, 0.19858752500000001, 0.188126675, 0.134262045, 0.0808254295, 0.0756301315, 0.129942062, 0.20713732499999998, 0.25362253500000004, 0.24102326000000002, 0.18192666, 0.107216335, 0.03685675555, -0.01878138684, -0.047603541500000006, -0.0463721855, -0.0310780725, -0.022973667, -0.0283256095, -0.033777774499999996, -0.020838474699999998], [-0.0404308185, -0.030428426, -0.01635967675, -0.00495377135, -0.0048962712, -0.01700138355, -0.0293761515, -0.033199197, -0.0309830485, -0.023298725500000003, -0.0083167411675, 0.008048439, 0.021261605000000003, 0.0347784805, 0.0497166925, 0.0632505585, 0.075164149, 0.08297992900000001, 0.078018702, 0.059035954, 0.0400979295, 0.0345419325, 0.0423949495, 0.059247403500000004, 0.079486005, 0.0853656175, 0.061034868, 0.02130725785, 0.00010803235099999999, 0.009817504329999999, 0.0317007115, 0.0409411095, 0.0289128955, 0.0034335836125000004, -0.01881398425, -0.022499059, -0.006847475511, 0.01752619255, 0.040879972, 0.054102645000000005, 0.050601691000000004, 0.035962191, 0.021190843, 0.005066606374, -0.0204595326, -0.049206219999999995, -0.0641660655, -0.061689957, -0.0529289815, -0.044485092999999996, -0.036855014, -0.0351236975, -0.045185082, -0.0642709565, -0.0826586225, -0.09017829349999999, -0.08075753649999999, -0.0570539825, -0.028002571, 9.48582295e-05, 0.023203729000000003, 0.036057496, 0.0366528875, 0.026865042500000002, 0.0087099498481, -0.013924701150000001, -0.034662177, -0.047247138499999994, -0.0451502435, -0.0257953235, 0.0022984520555000003, 0.028581881, 0.05102736100000001, 0.066775338, 0.0662046615, 0.045084843, 0.011478494383999999, -0.02110554455, -0.039805868, -0.037530602499999996, -0.021400030499999997, -0.0074578744, 0.00068346008805, 0.01472779795, 0.041223475, 0.07367494449999999, 0.103679253, 0.12379926, 0.124536445, 0.103774786, 0.0731428045, 0.0486288615, 0.0411299155, 0.054162928, 0.0777181115, 0.087775652, 0.06584521, 0.01850523093265, -0.029257800650000002, -0.061384352, -0.0812559025, -0.08819088750000001, -0.0687020855, -0.024935922200000002, 0.018099980183, 0.042383870000000004, 0.04983273, 0.048639449499999994, 0.044610703999999994, 0.0400758485, 0.030243592, 0.0003293414890000001, -0.067800501, -0.16773129999999997, -0.24829018000000003, -0.25399081500000004, -0.185768075, -0.09513396950000001, -0.025367742505000002, 0.018206386568]]","[[0.129190775, 0.11829257, 0.078273252, 0.0251961019, -0.019016409944, -0.054100947499999996, -0.030084076890000002, 0.124555974, 0.32489592, 0.37172663, 0.223833695, 0.042063439985000006, -0.0371156225, -0.027174452, -0.0020112864346000002, 0.0008093419508999999, -0.0214855167, -0.054505012500000005, -0.083465955, -0.1167123235, -0.15619031, -0.16522841, -0.109547664, -0.031236183350000002, -0.02490965085, -0.128948651, -0.2646672, -0.297477245, -0.16565701300000002, 0.0417918215, 0.16300073999999998, 0.110628172, -0.05616441227, -0.193074145, -0.18970926999999999, -0.04121318738, 0.137916957, 0.18030785500000002, 0.023774924235, -0.221474414, -0.386285325, -0.38648857, -0.23021064, 0.02994784426, 0.275638595, 0.35115504000000003, 0.1763996985, -0.148022488715, -0.37440543499999995, -0.313080795, 5.7234445000000635e-05, 0.32934621, 0.39619877000000003, 0.031023095720999996, -0.67658188, -1.3387870499999999, -1.5814597499999998, -1.4149085, -1.131939, -0.9597564049999999, -0.92543449, -0.9376406799999999, -0.90478042, -0.79127658, -0.579043395, -0.23099671600000002, 0.22986568433, 0.6563271450000001, 0.8849760000000001, 0.89376611, 0.815790485, 0.7870798550000001, 0.8195910550000001, 0.84299613, 0.80971094, 0.74842797, 0.7329286150000001, 0.78702821, 0.84242041, 0.8248011099999999, 0.7488797150000001, 0.642948215, 0.46373874, 0.217987645, 0.06633320000000001, 0.148397257, 0.35797410999999996, 0.437217275, 0.30175003499999997, 0.15111693, 0.18990915, 0.358670945, 0.43254635, 0.298720465, 0.061889492055, -0.0961433595, -0.09890516549999999, -0.011805648065, 0.0480579245, 0.025551923139, -0.057265532400000006, -0.16842651, -0.27055640000000003, -0.30312892999999996, -0.24099136999999998, -0.139412715, -0.0785646975, -0.1023640805, -0.20008646500000002, -0.308017155, -0.33672523499999996, -0.22777108999999998, -0.021130380075, 0.1407278425, 0.1388857975, -0.00746100474, -0.18489176499999999, -0.302753755, -0.32225049499999997, -0.24784335], [0.26873515000000003, 0.25222774000000003, 0.24528602500000002, 0.24270696, 0.224713895, 0.181499625, 0.131718715, 0.11500009, 0.164692385, 0.273530875, 0.38226054499999995, 0.42278422, 0.377774995, 0.286118795, 0.20270568, 0.16471836499999998, 0.16838417, 0.17068916, 0.133076005, 0.059186623, -0.013686519619999999, -0.059555067499999996, -0.09766841550000001, -0.168927695, -0.27319315499999997, -0.34104245499999997, -0.290207125, -0.11900807699999999, 0.07207985887765, 0.16467848, 0.1199436015, -0.0016240988565, -0.09978497300000001, -0.1148091785, -0.0618797965, -0.0041338964025, 0.0016077327657, -0.055721294, -0.1397078935, -0.19338754000000002, -0.17765355, -0.105015234, -0.039774630000000005, -0.0486929295, -0.138494234, -0.23937064, -0.25689646, -0.155692418, 0.004790950360000001, 0.1238459705, 0.145916225, 0.09347552249999999, 0.0286201482, -0.004230054941, 0.0040604200019999995, 0.044947231500000004, 0.09189866199999999, 0.09427869850000001, 0.011459523974999998, -0.13530446100000001, -0.25611260999999996, -0.25576791, -0.11742146999999999, 0.09221938195, 0.301082475, 0.458972935, 0.514861305, 0.44285526500000005, 0.282503825, 0.11675052450000001, 0.0031151354264999996, -0.065567621, -0.1312360455, -0.21456392000000002, -0.298443675, -0.35433421000000004, -0.36722661500000003, -0.33835302, -0.277719575, -0.200889515, -0.1290545785, -0.07609790300000001, -0.029472838215, 0.0420353523785, 0.1433616515, 0.216694245, 0.18996069, 0.07320764924999999, -0.039271294685, -0.060628733, 0.018883810795, 0.141456742, 0.234240435, 0.25383715, 0.201069215, 0.1088589455, 0.0196507001245, -0.036886853, -0.0580656265, -0.0617245435, -0.0644737005, -0.0694663145, -0.069607592, -0.0540671695, -0.0176946314145, 0.02858159465, 0.0600559715, 0.055515797, 0.0174291796835, -0.026382704150000002, -0.0540572285, -0.076648934, -0.1126533025, -0.15043236499999998, -0.161097455, -0.136711095, -0.0963877895, -0.061269604500000005, -0.036062906, -0.01544860705], [-0.031654192399999996, 0.0163887776834, 0.062193485, 0.105256514, 0.0968988265, -0.008678741775, -0.195230919, -0.383201915, -0.48324069999999997, -0.45596401999999997, -0.329643055, -0.1679632315, -0.025163872215, 0.07606178749999999, 0.14541895999999999, 0.205079355, 0.2521544, 0.24696323499999998, 0.1552661445, -0.00440630832, -0.168331746, -0.27144787000000004, -0.27319447, -0.16454099800000002, 0.02667883982, 0.24508769, 0.43538637, 0.557708085, 0.57651633, 0.45693529, 0.199251081, -0.129222115134, -0.416379675, -0.56014746, -0.519937815, -0.34063607500000004, -0.118995811, 0.07179700325999999, 0.21972967000000002, 0.34444314, 0.46093611500000004, 0.5671111400000001, 0.6281275550000001, 0.579124725, 0.38565278999999997, 0.103986627725, -0.140630071, -0.2367736, -0.154976163, 0.039278332495, 0.23032646, 0.324689265, 0.295351395, 0.17305413949999998, 0.0154091232775, -0.119775414, -0.19570999, -0.20657256000000002, -0.16902550000000002, -0.1100626955, -0.060970064, -0.049050487000000004, -0.0848468665, -0.155651695, -0.230571455, -0.28060745, -0.30298917, -0.317461755, -0.33815071, -0.35576659, -0.34494623500000005, -0.28723393999999997, -0.18982836, -0.082190111, 0.00420347175885, 0.0442019555, 0.016736437735, -0.080024551, -0.21137688000000002, -0.322189185, -0.37444789, -0.362558905, -0.29708477, -0.187419215, -0.036903834315, 0.15279784, 0.361809315, 0.533923825, 0.592383635, 0.48770525, 0.24200149299999998, -0.04028196931, -0.21864085, -0.206988855, -0.03243259363, 0.1955644795, 0.36387067500000003, 0.4128037, 0.35092433, 0.228580035, 0.0984347845, 0.0023774785935, -0.036414656000000004, -0.0305869535, -0.0164877085, -0.0167754705, -0.0291356215, -0.0386034205, -0.023203068, 0.03619705599, 0.13360539400000002, 0.22534187, 0.24646781999999998, 0.158533448, -0.00414716708, -0.1481106315, -0.18544122999999998, -0.08744143875, 0.101271457513, 0.29598758000000003]]","[[0.244439305, 0.34751815, 0.34133633500000005, 0.26960967, 0.20814431, 0.214067455, 0.303553975, 0.43418359500000003, 0.516219065, 0.47858596, 0.32543427999999996, 0.1234428935, -0.042445831146649994, -0.100156473, -0.0185099191452, 0.1579902125, 0.31324617, 0.33388501499999995, 0.1947925665, -0.014604057960000002, -0.139479465, -0.06320526121, 0.192921339, 0.466150825, 0.57270536, 0.444735025, 0.16923828449999997, -0.07544501499, -0.1370372925, 0.0006428005049999999, 0.20001896500000002, 0.2774757, 0.1448216925, -0.13032559948, -0.3675735, -0.394306395, -0.1844424565, 0.10001178359000001, 0.234885065, 0.11867204473899999, -0.15481863235, -0.3748246, -0.373528195, -0.1611573035, 0.07442685626500001, 0.1221144015, -0.07260650628, -0.35789645999999997, -0.49682863499999996, -0.36576878, -0.061894180890000004, 0.1820765385, 0.180670474, -0.09614684916999999, -0.529622645, -0.9283804999999999, -1.142411, -1.15614735, -1.07333455, -1.00363341, -0.97294027, -0.932836085, -0.832572305, -0.67005056, -0.473988825, -0.261114685, -0.04115190916000001, 0.14874435249999998, 0.25242469, 0.24847618000000002, 0.18279788, 0.135482615, 0.16155857, 0.27250435, 0.45623776, 0.68633133, 0.906529755, 1.032738225, 1.00580759, 0.847126135, 0.6377365300000001, 0.44498063000000004, 0.297903905, 0.23313675499999997, 0.30970273, 0.524933115, 0.744284595, 0.78693015, 0.59674005, 0.307679665, 0.13030059, 0.16110386, 0.301493565, 0.36758360500000004, 0.259940265, 0.02094372023195, -0.21781198, -0.311031985, -0.18126709200000002, 0.10789457019, 0.37481245, 0.464031325, 0.37148716, 0.218956705, 0.129992835, 0.13449276, 0.158295525, 0.0923154725, -0.10882176514, -0.375467785, -0.5564331849999999, -0.516543235, -0.2417082835, 0.1278814846195, 0.38097469500000003, 0.371364085, 0.097859281035, -0.303016806, -0.6182767650000001, -0.672152045], [0.0575990995, 0.032392740999999996, 0.035246635, 0.040968793, 0.01958939897, -0.0139958183925, -0.00824695906, 0.0619233695, 0.160459505, 0.22317973, 0.21945825, 0.17722981499999999, 0.14666126999999998, 0.1529629, 0.18482364, 0.20753338, 0.1849749, 0.10660113900000001, 0.001931219615, -0.067831799, -0.050557757, 0.032366921588, 0.0841964715, 0.0342149218675, -0.0719135685, -0.112997531, -0.027593612703, 0.114594769, 0.190532095, 0.149929255, 0.04701319968, -0.027468365650000003, -0.0287839044, 0.013805627611499999, 0.03742074, 0.004154848955, -0.0727947155, -0.146253315, -0.179238875, -0.17066175, -0.140162725, -0.11020911500000001, -0.10298116, -0.12506304000000001, -0.146403385, -0.1140645525, -0.00394646782, 0.1471510475, 0.2751435, 0.34150346499999995, 0.34268802, 0.294895305, 0.22834966999999998, 0.18169884, 0.18206468999999997, 0.22099899, 0.253521435, 0.238154655, 0.18336925999999998, 0.13560464, 0.114395095, 0.08016745650000001, -0.01493882161, -0.1516087995, -0.239282695, -0.20305145, -0.062194050609999996, 0.09582816749999999, 0.18667976, 0.16028479999999998, 0.0053848567, -0.24357911999999998, -0.51333933, -0.7227777999999999, -0.8220423649999999, -0.80809213, -0.705484055, -0.542980865, -0.35161609499999996, -0.168516109, -0.025821449330999998, 0.061071401, 0.0910702835, 0.074700773, 0.036477451, 0.005081433225, -0.00667746695, -0.00050463286, 0.027362032799999998, 0.08132563599999999, 0.145195975, 0.187857305, 0.18877272, 0.150163645, 0.087904917, 0.018427633892, -0.043708246500000006, -0.0858338955, -0.1007398555, -0.0869411945, -0.0500868165, -0.00506731143, 0.0360776275, 0.076694757, 0.1242140275, 0.17166035000000002, 0.20052079, 0.20174340000000002, 0.192622665, 0.20354699, 0.238527455, 0.264555555, 0.248686075, 0.18793473, 0.104721957, 0.0300884492, -0.014262943013, -0.025410105500000002, -0.014046241800000001, 0.001790642114], [-0.209642525, -0.156816765, -0.0865705425, -0.04488994650000001, -0.079436259, -0.18683401, -0.30258833500000004, -0.34982100000000005, -0.296434485, -0.173431495, -0.046238588307499995, 0.0340769762, 0.055442393, 0.032405684500000004, -0.00811622411515, -0.0353625745, -0.0331194175, -0.0073515751259999994, 0.0346835515, 0.0951369485, 0.162545805, 0.204476585, 0.20476729, 0.18978607, 0.20121119, 0.25677751, 0.34168101, 0.41796717, 0.43595753000000004, 0.36450192000000003, 0.223988625, 0.0708785505, -0.048440823345, -0.111610263, -0.1080863115, -0.0475128082, 0.029408593205, 0.08125517049999999, 0.1034098895, 0.12218101, 0.165455895, 0.240293325, 0.31969492, 0.35478607500000003, 0.31698251, 0.22508366, 0.12704761, 0.06617892, 0.05988066, 0.086333253, 0.0924267075, 0.03624459299, -0.0771928655, -0.205078955, -0.298176275, -0.324142455, -0.28296271, -0.2071932, -0.13800226999999998, -0.103204256, -0.11546352, -0.17282203, -0.25433483500000004, -0.32436038500000003, -0.34739723499999997, -0.314258665, -0.262450365, -0.24880094, -0.290579405, -0.34587986, -0.35409612, -0.28770053, -0.16877357499999998, -0.0454038255655, 0.0416701902, 0.070421595, 0.03635937, -0.0403351126, -0.11769019800000001, -0.162836595, -0.17418671, -0.16137346, -0.11893957000000001, -0.03609018011, 0.085289372, 0.23204365, 0.38081025500000004, 0.49167994, 0.5207242200000001, 0.44967103, 0.301967695, 0.1367902035, 0.0248867463808, 0.006934423627150001, 0.066925244, 0.15248716, 0.21255989499999997, 0.214275615, 0.151477025, 0.0521551038, -0.03483925611, -0.07189476, -0.0585258365, -0.0298908045, -0.027184588500000002, -0.059038397500000006, -0.09304301499999999, -0.0884911555, -0.0304427873, 0.0663059295, 0.17215532499999997, 0.25600848, 0.29431171, 0.27606502, 0.20909337, 0.1247258135, 0.06763122199999999, 0.0733209935, 0.146201125, 0.25052774]]","[[0.111030676, 0.17817103, 0.147643895, 0.035636283765, -0.0871471995, -0.133545535, -0.0514550675, 0.117794693, 0.246020855, 0.226586495, 0.07159386212, -0.1197288255, -0.2591848, -0.30022188, -0.217825885, -0.031232529475000003, 0.151585367, 0.18943957, 0.038057903495, -0.2069319725, -0.376057345, -0.32632876000000005, -0.04290027717, 0.31070364500000003, 0.47935445, 0.32888115, -0.01606986836, -0.273960605, -0.24842983, 0.01479764584, 0.28059173000000004, 0.326578615, 0.114384647705, -0.1990328905, -0.38120991, -0.290005895, 0.003991068645, 0.25480402, 0.24654113, -0.022516702175, -0.35115004, -0.500293235, -0.36476377, -0.045020453519999996, 0.220810235, 0.236033495, 0.0020360653749999995, -0.30074863, -0.45478046499999997, -0.31619484, 0.10018581920000001, 0.556558255, 0.6672733650000001, 0.15341017199499998, -0.8394447150000001, -1.7012264, -1.86504575, -1.3812273, -0.7792208100000001, -0.45753403, -0.40684961999999997, -0.415078385, -0.34826597, -0.207466645, -0.016403360445, 0.24084735999999998, 0.548167715, 0.79951118, 0.8849816149999999, 0.812597335, 0.6963629349999999, 0.62553656, 0.5821362950000001, 0.51045461, 0.435690095, 0.449522675, 0.57074168, 0.692668185, 0.7028376350000001, 0.6047055, 0.47839872, 0.36274803, 0.24090053, 0.13173819, 0.116479385, 0.23064291999999997, 0.37277089500000005, 0.3800907, 0.203518749, -0.018640762495, -0.0889942445, 0.038007458695, 0.19719747999999998, 0.1811201325, -0.059400531900000005, -0.39126906, -0.62234421, -0.626636095, -0.412035285, -0.1251279035, 0.029680771144999996, -0.066837812009, -0.35314511000000004, -0.622996275, -0.67013525, -0.447520405, -0.1171580446025, 0.071528113, -0.004945777469999999, -0.23181627999999999, -0.35362638500000004, -0.195849669, 0.18546254729, 0.557004225, 0.69131625, 0.52100447, 0.16185463090500002, -0.17871481150000001, -0.314207945, -0.1741815665], [0.058762706500000005, 0.0407396895, 0.0884627805, 0.145422885, 0.156867405, 0.11995001849999999, 0.089665702, 0.11819411, 0.18947909, 0.236218415, 0.22260417, 0.17604071000000002, 0.14021456499999999, 0.139887925, 0.17582068, 0.21314191000000002, 0.205500505, 0.143887005, 0.0578056655, -0.0084822109115, -0.0237580315, -0.00582802254, -0.01571100608, -0.0877789575, -0.17250817000000002, -0.17405100999999998, -0.050305638195, 0.13352343449999998, 0.25825349, 0.25536652, 0.15559815500000002, 0.042506895295, -0.021540986754999998, -0.025854615499999997, -0.0011482768389, 0.005460006184900001, -0.03774460965, -0.1187516965, -0.18881835500000002, -0.20868041999999998, -0.179324215, -0.133884445, -0.11634243, -0.1542936, -0.23021560000000002, -0.28193647, -0.248235815, -0.122458603, 0.042111762122999996, 0.17419815, 0.214316395, 0.128695703, -0.04983038483, -0.2030961, -0.21463675, -0.09147589399999999, 0.043119768103, 0.0718940475, -0.01885658262, -0.1437193765, -0.19696634, -0.1343593365, 0.0037670822399999996, 0.142047069, 0.23275024, 0.271311665, 0.273134665, 0.25173762, 0.21539998000000002, 0.16393502999999998, 0.08761437600000001, -0.020506550529999997, -0.1484197775, -0.26244553, -0.33020470500000004, -0.34583640000000004, -0.321120635, -0.261966555, -0.172345055, -0.07397068400000001, -0.0026429670725, 0.023921037, 0.033859498, 0.078792457, 0.16047906999999997, 0.20068788, 0.1360093825, 0.014217380070500002, -0.058373618499999995, -0.0257999503145, 0.0818883835, 0.19390065, 0.25419489, 0.242177175, 0.169388255, 0.0692193425, -0.01842259843, -0.0657482385, -0.0699554825, -0.0496902955, -0.026654783499999998, -0.01141765085, -0.0011763078809999999, 0.0167813042, 0.0536478615, 0.1030476895, 0.14023402499999998, 0.14256339499999998, 0.112806187, 0.080132367, 0.0674382645, 0.060640651500000003, 0.0320709511, -0.0135433429226, -0.044008392, -0.039894077, -0.010485136964049999, 0.0227233304, 0.0468638215, 0.0632809515], [0.01105244032, 0.0578375765, 0.085108777, 0.0939557595, 0.055115615, -0.048091288414999996, -0.18434114499999998, -0.291566455, -0.31971267999999997, -0.260722785, -0.14896536, -0.03432375902, 0.045900792499999996, 0.0763875175, 0.0676022915, 0.048639414, 0.038136352000000005, 0.0279809325, 0.0086730294885, -0.00694964755, -0.0049590390150000005, 0.005283336174999999, 0.011380152749999999, 0.026017493, 0.072907693, 0.156856255, 0.25939807, 0.347003015, 0.372682545, 0.29258251, 0.10343414347999999, -0.13909976699999999, -0.345986355, -0.438792575, -0.38712674999999996, -0.229001855, -0.049908954845, 0.080776717, 0.15309910000000002, 0.19811182500000002, 0.25026876000000003, 0.32538915, 0.40157421499999996, 0.41980756999999996, 0.33097817999999996, 0.149721012, -0.04237473904, -0.14383451, -0.09705266, 0.06639472086499999, 0.23880970999999998, 0.31280572500000003, 0.254036855, 0.106320672, -0.05337096054, -0.16054544, -0.190476285, -0.16038802, -0.1073591455, -0.06763066150000001, -0.06839197699999999, -0.1186998625, -0.20161731, -0.28017731, -0.31412456, -0.286283515, -0.222787335, -0.172617165, -0.1611815, -0.172719995, -0.17366531999999998, -0.143761355, -0.0897571935, -0.035431944, -0.0024758870365, -0.0054369988895, -0.0534815855, -0.1376891235, -0.22195200499999998, -0.268510275, -0.270353655, -0.2424053, -0.190751925, -0.10833460199999999, 0.011125619355, 0.164731356, 0.33095415, 0.45859936500000004, 0.48339145, 0.37373812, 0.16672648299999998, -0.034741782145000004, -0.113495179, -0.017721082835, 0.19767466949999998, 0.409063895, 0.5013857500000001, 0.42918994499999996, 0.237910185, 0.024590290735, -0.12672783, -0.166579615, -0.090128006, 0.04460523523, 0.149841415, 0.175201225, 0.12736705199999998, 0.045908076199999995, -0.020360805505, -0.03392936, 0.01416927868, 0.089863576, 0.11878768, 0.050658549125, -0.07116108175, -0.152423605, -0.145623035, -0.06724635400000001, 0.044314566775, 0.15490615]]","[[0.38518685094444444, 0.40584413455555557, 0.3472108191111111, 0.24263981012, 0.15352419109488888, 0.13366989041972221, 0.2096092010288889, 0.3516438783333334, 0.4658136697777778, 0.4563637132777778, 0.3091328051666667, 0.10106116433411111, -0.060243484754222226, -0.09533315131611111, 0.01757010334783333, 0.22465932481777778, 0.40449751222222224, 0.43746825683333335, 0.2953728138438889, 0.062435945416666666, -0.1253596872311111, -0.16591978421555556, -0.05323440375722222, 0.1111762227476111, 0.1812142960983333, 0.07876602244666667, -0.14074200070994444, -0.3277925189877778, -0.35354391663761114, -0.21656832560555553, -0.045486392592944444, 0.014756744889611111, -0.08076485672222222, -0.2604490973488889, -0.40063034619500004, -0.4078858324444445, -0.28409460138583337, -0.13792896430444443, -0.10601385272222222, -0.23998644446450001, -0.46515170950722223, -0.6345604233333334, -0.6306018538888889, -0.45427273388888895, -0.23771251434377777, -0.15112990853299998, -0.2711767217777778, -0.5191882646377778, -0.7187775527777778, -0.7336944272222222, -0.5815196227777778, -0.41032016499999996, -0.3561831028333334, -0.4420600041561111, -0.6060931911111112, -0.7911085027777777, -0.955306141111111, -1.028026058888889, -0.9671370373472221, -0.8210126369388888, -0.6707376161195, -0.5460749583333333, -0.4184563138888889, -0.24639558824833332, -0.004712331722777779, 0.30720144487055556, 0.6484799429916667, 0.9349112381388889, 1.0879728855555555, 1.0948408744444444, 1.015167569611111, 0.9311496876666666, 0.8931637346111111, 0.9074493250000001, 0.9599306022222223, 1.0364908157255, 1.1141765836666666, 1.1433637961666667, 1.070372642888889, 0.8977523592777777, 0.690217236327, 0.5084647841666666, 0.3699767111111111, 0.28676204833333335, 0.2966395838888889, 0.40350562500000003, 0.5089867293333333, 0.47700537583333336, 0.27955624944444446, 0.04764036048055556, -0.035123899776238886, 0.09613009532777778, 0.3117972216666667, 0.39864644499999996, 0.25276548823927775, -0.04630037451, -0.3202685058425, -0.42002820661111107, -0.31391497925, -0.11074099640444444, 0.01274576538888889, -0.048163353292222225, -0.24711513283722222, -0.4434812623594444, -0.5151962512277778, -0.4318480095, -0.26969992433333334, -0.16021822063900001, -0.18597121621444443, -0.31185473939277775, -0.41892739942611107, -0.4040173322222222, -0.2571431326111111, -0.060827930074055556, 0.07511651362672223, 0.08071871600077778, -0.050847485118333334, -0.26612782012277775, -0.45188165901988886, -0.4795171772222222], [0.25454320844444445, 0.14559904031466667, 0.07748172659516667, 0.07083781912777778, 0.08899145969016667, 0.08855069858672221, 0.06888776215, 0.06016853868144444, 0.08670185923805555, 0.14860118042777778, 0.22340429859, 0.2848153709444444, 0.3198203838888889, 0.32674403055555556, 0.3072032566666667, 0.2631208998333333, 0.19883689355555556, 0.12259933176516666, 0.04497237549594445, -0.011208623598111112, -0.012831759173944444, 0.03691845561388889, 0.06787973530194445, 0.0072888949702722226, -0.1269208602222222, -0.22708416588277777, -0.1922197114963889, -0.018021696823333332, 0.2040745459743889, 0.36021796144444446, 0.38610300111111107, 0.2951423948888889, 0.16009601885001665, 0.06109372482038889, 0.031827162107888884, 0.04591686240816666, 0.05625670069066666, 0.04262847017111111, 0.012012028612222224, -0.03130937342477778, -0.08617227254444444, -0.1383763471611111, -0.17245108616666666, -0.18728602311111112, -0.18561311322366666, -0.16029854630644444, -0.10442496653055555, -0.02471354406366667, 0.06766069972222223, 0.16646972724055556, 0.2560622272822222, 0.30467057361488886, 0.2938896830744444, 0.24878853338888887, 0.22013132772222221, 0.23431506271727776, 0.2740340828888889, 0.3044303333333333, 0.30360682099866665, 0.26398738566666663, 0.17095514436555553, 0.0048141129227777775, -0.21551117184833335, -0.40251755522277777, -0.4405913477777778, -0.2782845588208333, 0.0032563355555555538, 0.2312839134877778, 0.26893473961111114, 0.0966749501161111, -0.2050659012227778, -0.5211771517222222, -0.7678276060688889, -0.9170141155555556, -0.9696064055555556, -0.9260780033333333, -0.7851034911111111, -0.5658398492777778, -0.3304362129726667, -0.15882073461766444, -0.08511904247466667, -0.07156711311111111, -0.04942373183461111, 0.018923523184277778, 0.1126216936888889, 0.17159671680388888, 0.14964547223888888, 0.05921895743794445, -0.03667542907777778, -0.07226615825672777, -0.019017136358333332, 0.10485515261055556, 0.24416733516666667, 0.33172278066666666, 0.32721004155555555, 0.24165650199444447, 0.12337142086033333, 0.021256187580166664, -0.03343459211111111, -0.025443700604444442, 0.039964691611333335, 0.12629079909444443, 0.18322561805555554, 0.19262882783333332, 0.1816896471666667, 0.18130189900000002, 0.19026733577777777, 0.19144617644444445, 0.18334308238888888, 0.17806813523833334, 0.17868166885544443, 0.1721795018447778, 0.14994864011111111, 0.12192490700804445, 0.09983465938888889, 0.0832213424388889, 0.06924757142172222, 0.06360342935344444, 0.07942565260555556, 0.12103362268933333], [0.0007407844610000002, 0.05948757950111555, 0.1074630873535, 0.14012719186666667, 0.13649809202777777, 0.07889822746324444, -0.022736258214444444, -0.13089382732833335, -0.20015143716666667, -0.20261999394627778, -0.14409985464777778, -0.05484336688277778, 0.036850052524999996, 0.11727694288888889, 0.18490115561111112, 0.2426713782222222, 0.28197643605555556, 0.27751039094444446, 0.21498564916666665, 0.11598897105362777, 0.017695726705266666, -0.058665106127438894, -0.10078520033066667, -0.0864359169111111, -0.0017183925218000008, 0.12923050806055555, 0.25511969916666666, 0.33296688722222223, 0.33969431055555555, 0.26338937966666665, 0.11027169717111111, 